1.0,0.5198776721954346,0.5076452493667603,0.4892966449260712,0.4984709620475769,0.4740061163902282,0.4954128563404083,0.4617736935615539,0.4220183491706848,0.32721713185310364,0.23547400534152985,0.12844036519527435,0.1987767517566681,0.18654434382915497,0.1651376187801361,0.15596330165863037,0.21406728029251096,0.18960244953632352,0.19266055524349213,0.1804281324148178,0.20183485746383664,0.19266055524349213,0.20489296317100525,0.1987767517566681,0.22629968822002408,0.2110091745853424,0.21406728029251096,0.21406728029251096,0.21406728029251096,0.21712538599967957,0.23241589963436127,0.2110091745853424,0.23241589963436127,0.23547400534152985,0.2446483224630356,0.24770642817020416,0.2721712589263916,0.269113153219223,0.27828747034072876,0.29357796907424927,0.3149847090244293,0.30886849761009216,0.3211009204387665,0.3333333432674408,0.34250763058662415,0.3180428147315979,0.32721713185310364,0.29357796907424927,0.29357796907424927,0.2905198633670807,0.2905198633670807,0.27828747034072876,0.27828747034072876,0.26605504751205444,0.269113153219223,0.26299694180488586,0.2721712589263916,0.2507645189762115,0.2568807303905487,0.24770642817020416,0.2599388360977173,0.2507645189762115,0.269113153219223,0.2507645189762115,0.26605504751205444,0.24770642817020416,0.2507645189762115,0.23241589963436127,0.23547400534152985,0.23547400534152985,0.24770642817020416,0.2385321110486984,0.2507645189762115,0.22324159741401672,0.2446483224630356,0.241590216755867,0.23547400534152985,0.22629968822002408,0.22629968822002408,0.22018349170684817,0.22629968822002408,0.22324159741401672,0.241590216755867,0.22324159741401672,0.2293577939271927,0.22018349170684817,0.241590216755867,0.22629968822002408,0.23241589963436127,0.2293577939271927,0.23547400534152985,0.22629968822002408,0.2385321110486984,0.2293577939271927,0.2293577939271927,0.2293577939271927,0.2385321110486984,0.2385321110486984,0.2507645189762115,0.2446483224630356,0.29663607478141785,0.5198776721954346,0.825688064098358,0.49235475063323975,0.5321100950241089,0.5107033848762512,0.5198776721954346,0.4740061163902282,0.44342508912086487,0.35779815912246704,0.2568807303905487,0.12844036519527435,0.0,0.05504587292671203,0.1223241612315178,0.13149847090244293,0.17431192100048065,0.22018349170684817,0.22018349170684817,0.18654434382915497,0.1834862381219864,0.1804281324148178,0.0,0.0,0.0,0.0,0.0,0.0,0.0,0.0,0.0,0.0,0.0,0.0,0.0,0.0,0.0,0.0,0.0,0.0,0.0,0.0,0.0,0.0,0.0,0.0,0.0,0.0,0.0,0.0,0.0,0.0,0.0,0.0,0.0,0.0,0.0,0.0,0.0,0.0,0.0,0.0,0.0,0.0,0.0,0.0,0.0,0.0,0.0,0.0,0.0,0.0,0.0,0.0,0.0,0.0,0.0,0.0,0.0,0.0,0.0,0.0,0.0,0.0,0.0,0.0,0.0,4.0
0.9976744055747984,1.0,0.9627906680107117,0.9395349025726318,0.9058139324188232,0.8023256063461304,0.6104651093482971,0.3883720934391022,0.24418604373931885,0.17558139562606812,0.13255813717842102,0.12674418091773987,0.11279069632291792,0.08720929920673369,0.07325581461191177,0.06162790581583977,0.04534883797168731,0.01976744271814823,0.0058139534667134285,0.009302325546741486,0.0,0.004651162773370743,0.0220930241048336,0.04883721098303795,0.07790697365999222,0.09651162475347519,0.12790697813034055,0.16627906262874603,0.19302324950695035,0.2325581461191177,0.2616279125213623,0.28953489661216736,0.3058139681816101,0.30813953280448914,0.31744185090065,0.32906976342201233,0.31976744532585144,0.3162790834903717,0.3058139681816101,0.30000001192092896,0.29883721470832825,0.2848837077617645,0.2802325487136841,0.2848837077617645,0.2813953459262848,0.2813953459262848,0.2802325487136841,0.28604650497436523,0.28604650497436523,0.2837209403514862,0.28953489661216736,0.30000001192092896,0.29767441749572754,0.3162790834903717,0.3372093141078949,0.3499999940395355,0.3639535009860992,0.3581395447254181,0.3395348787307739,0.31162789463996887,0.27674418687820435,0.2662790715694427,0.2732558250427246,0.2732558250427246,0.2802325487136841,0.27558138966560364,0.2732558250427246,0.2813953459262848,0.26744186878204346,0.2732558250427246,0.4058139622211456,0.6627907156944275,0.8895348906517029,0.8255813717842102,0.5581395626068115,0.30930233001708984,0.12674418091773987,0.13488371670246124,0.21511627733707428,0.22674418985843656,0.20000000298023224,0.2023255825042725,0.197674423456192,0.18953488767147064,0.18953488767147064,0.18139535188674927,0.0,0.0,0.0,0.0,0.0,0.0,0.0,0.0,0.0,0.0,0.0,0.0,0.0,0.0,0.0,0.0,0.0,0.0,0.0,0.0,0.0,0.0,0.0,0.0,0.0,0.0,0.0,0.0,0.0,0.0,0.0,0.0,0.0,0.0,0.0,0.0,0.0,0.0,0.0,0.0,0.0,0.0,0.0,0.0,0.0,0.0,0.0,0.0,0.0,0.0,0.0,0.0,0.0,0.0,0.0,0.0,0.0,0.0,0.0,0.0,0.0,0.0,0.0,0.0,0.0,0.0,0.0,0.0,0.0,0.0,0.0,0.0,0.0,0.0,0.0,0.0,0.0,0.0,0.0,0.0,0.0,0.0,0.0,0.0,0.0,0.0,0.0,0.0,0.0,0.0,0.0,0.0,0.0,0.0,0.0,0.0,0.0,0.0,0.0,0.0,0.0,2.0
1.0,0.9146666526794432,0.6653333306312561,0.3199999928474426,0.1066666692495346,0.10000000149011612,0.08799999952316284,0.06400000303983688,0.052000001072883606,0.03999999910593033,0.029333332553505898,0.02266666665673256,0.019999999552965164,0.009333333000540733,0.0,0.00800000037997961,0.00800000037997961,0.00800000037997961,0.014666666276752949,0.03466666489839554,0.06133333221077919,0.07733333110809326,0.1013333350419998,0.13866665959358215,0.16799999773502347,0.19599999487400055,0.218666672706604,0.25600001215934753,0.2906666696071625,0.30266666412353516,0.30666667222976685,0.3160000145435333,0.30799999833106995,0.30533334612846375,0.29866665601730347,0.281333327293396,0.2746666669845581,0.25466665625572205,0.23600000143051147,0.2293333262205124,0.218666672706604,0.2133333384990692,0.20933333039283752,0.218666672706604,0.23333333432674408,0.23066666722297668,0.2346666604280472,0.2666666805744171,0.2866666615009308,0.29733332991600037,0.29866665601730347,0.2879999876022339,0.2693333327770233,0.23866666853427887,0.21466666460037231,0.2133333384990692,0.21466666460037231,0.20933333039283752,0.21466666460037231,0.21733333170413968,0.21999999880790713,0.2160000056028366,0.2039999961853027,0.21466666460037231,0.3213333189487457,0.5360000133514404,0.7653333544731141,0.7613333463668822,0.5146666765213013,0.25200000405311584,0.06533333659172058,0.03333333507180214,0.11333333700895308,0.14266666769981384,0.12266666442155838,0.12533333897590637,0.12133333086967468,0.1146666631102562,0.1120000034570694,0.0,0.0,0.0,0.0,0.0,0.0,0.0,0.0,0.0,0.0,0.0,0.0,0.0,0.0,0.0,0.0,0.0,0.0,0.0,0.0,0.0,0.0,0.0,0.0,0.0,0.0,0.0,0.0,0.0,0.0,0.0,0.0,0.0,0.0,0.0,0.0,0.0,0.0,0.0,0.0,0.0,0.0,0.0,0.0,0.0,0.0,0.0,0.0,0.0,0.0,0.0,0.0,0.0,0.0,0.0,0.0,0.0,0.0,0.0,0.0,0.0,0.0,0.0,0.0,0.0,0.0,0.0,0.0,0.0,0.0,0.0,0.0,0.0,0.0,0.0,0.0,0.0,0.0,0.0,0.0,0.0,0.0,0.0,0.0,0.0,0.0,0.0,0.0,0.0,0.0,0.0,0.0,0.0,0.0,0.0,0.0,0.0,0.0,0.0,0.0,0.0,0.0,0.0,0.0,0.0,0.0,0.0,0.0,3.0
0.0,0.009485094808042048,0.07994580268859862,0.14227642118930817,0.1991869956254959,0.2520325183868408,0.3211382031440735,0.3848238587379455,0.40243902802467346,0.4634146392345429,0.5528455376625061,0.6178861856460571,0.6327913403511047,0.6436314582824707,0.6490514874458313,0.6747967600822449,0.6829268336296082,0.7046070694923401,0.7032520174980164,0.7127371430397034,0.7384823560714722,0.7615176439285278,0.7764227390289308,0.7899729013442993,0.8075881004333496,0.8089430928230285,0.7899729013442993,0.7845528721809387,0.7601625919342042,0.707317054271698,0.6842818260192871,0.6707317233085632,0.6355013847351074,0.6178861856460571,0.5907859206199646,0.5718157291412354,0.5596206188201904,0.5542005300521851,0.5623306035995483,0.5542005300521851,0.5528455376625061,0.5596206188201904,0.5609756112098694,0.5392953753471375,0.5406504273414612,0.5609756112098694,0.5528455376625061,0.5569105744361877,0.565040647983551,0.5528455376625061,0.5487805008888245,0.5433604121208191,0.5487805008888245,0.5555555820465088,0.5542005300521851,0.5433604121208191,0.5447154641151428,0.5420054197311401,0.5365853905677795,0.5379403829574585,0.5501354932785034,0.5542005300521851,0.5379403829574585,0.5325203537940979,0.5460704565048218,0.5677506923675537,0.5826558470726013,0.5799458026885986,0.5962059497833252,0.6178861856460571,0.6273712515830994,0.6124660968780518,0.6111111044883728,0.6111111044883728,0.577235758304596,0.5487805008888245,0.5501354932785034,0.5392953753471375,0.5298103094100952,0.5365853905677795,0.5379403829574585,0.5460704565048218,0.577235758304596,0.707317054271698,0.8604335784912108,0.9593495726585389,1.0,0.8861788511276245,0.6815718412399292,0.5704606771469116,0.5447154641151428,0.510840117931366,0.487804889678955,0.4850948452949524,0.4850948452949524,0.4728997349739074,0.4701896905899048,0.48644986748695374,0.4769647717475891,0.0,0.0,0.0,0.0,0.0,0.0,0.0,0.0,0.0,0.0,0.0,0.0,0.0,0.0,0.0,0.0,0.0,0.0,0.0,0.0,0.0,0.0,0.0,0.0,0.0,0.0,0.0,0.0,0.0,0.0,0.0,0.0,0.0,0.0,0.0,0.0,0.0,0.0,0.0,0.0,0.0,0.0,0.0,0.0,0.0,0.0,0.0,0.0,0.0,0.0,0.0,0.0,0.0,0.0,0.0,0.0,0.0,0.0,0.0,0.0,0.0,0.0,0.0,0.0,0.0,0.0,0.0,0.0,0.0,0.0,0.0,0.0,0.0,0.0,0.0,0.0,0.0,0.0,0.0,0.0,0.0,0.0,0.0,0.0,0.0,0.0,0.0,0.0,2.0
0.027334852144122124,0.006833713036030531,0.0,0.042141228914260864,0.15831434726715088,0.2266514748334885,0.2619589865207672,0.34054669737815857,0.46583142876625067,0.5820045471191406,0.6514806151390076,0.6731207370758057,0.694760799407959,0.7072892785072327,0.7232346534729003,0.7425968050956726,0.7722095847129823,0.7995443940162659,0.839407742023468,0.8826879262924193,0.9214122891426086,0.9498860836029053,0.9772209525108336,0.9897494316101073,1.0,0.9943052530288696,0.9772209525108336,0.9521639943122864,0.9202733635902405,0.8872437477111816,0.8507972955703736,0.804100215435028,0.7630979418754578,0.7266514897346495,0.694760799407959,0.6640090942382812,0.6457858681678772,0.6218678951263428,0.6082004308700562,0.5888382792472839,0.5820045471191406,0.5763098001480103,0.5706150531768799,0.5660592317581177,0.5603644847869873,0.5466970205307007,0.5466970205307007,0.5444191098213196,0.5398633480072021,0.5284737944602966,0.5330296158790588,0.5296127796173096,0.5261958837509155,0.5296127796173096,0.5261958837509155,0.5216400623321533,0.5273348689079285,0.5227790474891663,0.5296127796173096,0.5318906903266907,0.5364464521408081,0.5307517051696777,0.5318906903266907,0.5353075265884399,0.534168541431427,0.5296127796173096,0.5227790474891663,0.519362211227417,0.5239179730415344,0.5091116428375244,0.5136674046516418,0.5113894939422607,0.5068337321281433,0.5045558214187622,0.5079726576805115,0.5034168362617493,0.5022779107093811,0.5045558214187622,0.5091116428375244,0.5034168362617493,0.5068337321281433,0.5091116428375244,0.5170843005180359,0.5558086633682251,0.5968109369277954,0.6366742849349976,0.7346241474151611,0.8234624266624451,0.858769953250885,0.8120728731155396,0.694760799407959,0.5387243628501892,0.44760820269584656,0.42710706591606146,0.4134396314620971,0.39977219700813293,0.39066058397293085,0.38496583700180054,0.0,0.0,0.0,0.0,0.0,0.0,0.0,0.0,0.0,0.0,0.0,0.0,0.0,0.0,0.0,0.0,0.0,0.0,0.0,0.0,0.0,0.0,0.0,0.0,0.0,0.0,0.0,0.0,0.0,0.0,0.0,0.0,0.0,0.0,0.0,0.0,0.0,0.0,0.0,0.0,0.0,0.0,0.0,0.0,0.0,0.0,0.0,0.0,0.0,0.0,0.0,0.0,0.0,0.0,0.0,0.0,0.0,0.0,0.0,0.0,0.0,0.0,0.0,0.0,0.0,0.0,0.0,0.0,0.0,0.0,0.0,0.0,0.0,0.0,0.0,0.0,0.0,0.0,0.0,0.0,0.0,0.0,0.0,0.0,0.0,0.0,0.0,0.0,0.0,2.0
0.5145228505134583,0.4771784245967865,0.30705395340919495,0.1825726181268692,0.12033195048570632,0.062240663915872574,0.037344399839639664,0.029045643284916874,0.016597511246800423,0.012448132969439028,0.0,0.004149377811700106,0.012448132969439028,0.004149377811700106,0.012448132969439028,0.02074688859283924,0.02489626593887806,0.037344399839639664,0.04979253187775612,0.05394190922379494,0.05394190922379494,0.062240663915872574,0.07468879967927933,0.08713693171739578,0.09128630906343459,0.10788381844758987,0.12448132783174513,0.1369294673204422,0.16597510874271393,0.186721995472908,0.21161825954914093,0.23651452362537384,0.2531120479106903,0.2738589346408844,0.2697095572948456,0.2780083119869232,0.2531120479106903,0.23651452362537384,0.2033195048570633,0.17012448608875275,0.14937759935855863,0.12448132783174513,0.09128630906343459,0.08713693171739578,0.08298755437135696,0.08298755437135696,0.08298755437135696,0.07883817702531815,0.07468879967927933,0.07468879967927933,0.07883817702531815,0.07468879967927933,0.07468879967927933,0.07468879967927933,0.07468879967927933,0.07468879967927933,0.07468879967927933,0.07053942233324051,0.07468879967927933,0.07468879967927933,0.06639004498720169,0.07053942233324051,0.07468879967927933,0.07053942233324051,0.06639004498720169,0.06639004498720169,0.07053942233324051,0.07053942233324051,0.062240663915872574,0.06639004498720169,0.07053942233324051,0.07053942233324051,0.07468879967927933,0.07053942233324051,0.07053942233324051,0.06639004498720169,0.07468879967927933,0.062240663915872574,0.07468879967927933,0.07883817702531815,0.07053942233324051,0.07053942233324051,0.07468879967927933,0.08298755437135696,0.08713693171739578,0.07883817702531815,0.08298755437135696,0.07883817702531815,0.07883817702531815,0.08713693171739578,0.09128630906343459,0.08298755437135696,0.07883817702531815,0.07883817702531815,0.08298755437135696,0.08713693171739578,0.08298755437135696,0.08298755437135696,0.09128630906343459,0.08713693171739578,0.09128630906343459,0.0954356864094734,0.0954356864094734,0.0954356864094734,0.08713693171739578,0.08713693171739578,0.09958506375551224,0.08713693171739578,0.0954356864094734,0.09128630906343459,0.08713693171739578,0.09128630906343459,0.09958506375551224,0.09128630906343459,0.10373444110155104,0.09128630906343459,0.09128630906343459,0.0954356864094734,0.0954356864094734,0.0954356864094734,0.10373444110155104,0.0954356864094734,0.10373444110155104,0.0954356864094734,0.10788381844758987,0.09958506375551224,0.11203319579362868,0.10788381844758987,0.10373444110155104,0.10788381844758987,0.12448132783174513,0.12033195048570632,0.12033195048570632,0.13278008997440338,0.16597510874271393,0.17427386343479156,0.19087137281894684,0.19917012751102448,0.21576763689517975,0.21161825954914093,0.19502075016498563,0.17842324078083038,0.17427386343479156,0.14522822201251984,0.12033195048570632,0.10788381844758987,0.09958506375551224,0.09958506375551224,0.10373444110155104,0.09958506375551224,0.09958506375551224,0.09958506375551224,0.09958506375551224,0.09958506375551224,0.141078844666481,0.17427386343479156,0.28215768933296204,0.54356849193573,0.8215767741203309,1.0,0.6556016802787781,0.2531120479106903,0.08298755437135696,0.1369294673204422,0.12033195048570632,0.09128630906343459,0.07883817702531815,0.06639004498720169,0.07468879967927933,0.08298755437135696,0.07468879967927933,0.07053942233324051,0.07468879967927933,0.08298755437135696,0.09128630906343459,0.07883817702531815,0.07883817702531815,0.09958506375551224,0.0954356864094734,0.10788381844758987,0.12033195048570632,0.12448132783174513,0.12033195048570632,0.1369294673204422,0.15352697670459747,0.1576763540506363,0.17427386343479156,1.0
1.0,0.8320000171661378,0.19200000166893005,0.0,0.09200000017881392,0.14000000059604645,0.12800000607967377,0.18000000715255737,0.25999999046325684,0.21999999880790713,0.20000000298023224,0.24799999594688416,0.3199999928474426,0.3479999899864197,0.3199999928474426,0.3319999873638153,0.3400000035762787,0.3479999899864197,0.3319999873638153,0.3319999873638153,0.36000001430511475,0.35199999809265137,0.328000009059906,0.35199999809265137,0.3720000088214874,0.3840000033378601,0.38800001144409174,0.38800001144409174,0.41999998688697815,0.4480000138282776,0.4519999921321869,0.47999998927116394,0.5040000081062317,0.5360000133514404,0.5519999861717224,0.5680000185966492,0.5759999752044678,0.5879999995231628,0.5519999861717224,0.515999972820282,0.48800000548362726,0.4600000083446502,0.42399999499320984,0.38800001144409174,0.3799999952316284,0.36000001430511475,0.3319999873638153,0.3199999928474426,0.3199999928474426,0.3160000145435333,0.30000001192092896,0.30000001192092896,0.31200000643730164,0.3199999928474426,0.3160000145435333,0.30799999833106995,0.30799999833106995,0.30000001192092896,0.2840000092983246,0.2840000092983246,0.2919999957084656,0.29600000381469727,0.30000001192092896,0.30000001192092896,0.328000009059906,0.335999995470047,0.3199999928474426,0.29600000381469727,0.3199999928474426,0.3160000145435333,0.2919999957084656,0.2919999957084656,0.3199999928474426,0.3199999928474426,0.30000001192092896,0.30399999022483826,0.335999995470047,0.3319999873638153,0.3199999928474426,0.31200000643730164,0.3160000145435333,0.328000009059906,0.31200000643730164,0.30399999022483826,0.335999995470047,0.335999995470047,0.3400000035762787,0.3840000033378601,0.5,0.7480000257492065,0.9520000219345093,0.5360000133514404,0.04399999976158142,0.052000001072883606,0.12800000607967377,0.13199999928474426,0.14800000190734863,0.23600000143051147,0.2039999961853027,0.18799999356269836,0.24400000274181363,0.30799999833106995,0.3199999928474426,0.3160000145435333,0.3199999928474426,0.3160000145435333,0.30799999833106995,0.3160000145435333,0.328000009059906,0.3319999873638153,0.328000009059906,0.3160000145435333,0.335999995470047,0.35199999809265137,0.36000001430511475,0.363999992609024,0.38800001144409174,0.4120000004768371,0.42800000309944153,0.43999999761581426,0.47600001096725464,0.4959999918937683,0.5199999809265137,0.5320000052452087,0.5640000104904175,0.5519999861717224,0.515999972820282,0.47999998927116394,0.4519999921321869,0.4120000004768371,0.3840000033378601,0.3440000116825104,0.3240000009536743,0.3240000009536743,0.30000001192092896,0.2680000066757202,0.2800000011920929,0.2800000011920929,0.2759999930858612,0.2879999876022339,0.2840000092983246,0.29600000381469727,0.2800000011920929,0.2639999985694885,0.2720000147819519,0.30399999022483826,0.2879999876022339,0.2800000011920929,0.2840000092983246,0.2919999957084656,0.2800000011920929,0.2759999930858612,0.2840000092983246,0.2879999876022339,0.2759999930858612,0.2639999985694885,0.2800000011920929,0.2800000011920929,0.2680000066757202,0.25600001215934753,0.2639999985694885,0.2680000066757202,0.2639999985694885,0.25600001215934753,0.2680000066757202,0.2720000147819519,0.25200000405311584,0.25999999046325684,0.2800000011920929,0.2720000147819519,0.25999999046325684,0.2680000066757202,0.2759999930858612,0.25999999046325684,0.25999999046325684,0.23999999463558197,0.25999999046325684,0.2639999985694885,0.25600001215934753,0.25200000405311584,0.2680000066757202,0.25999999046325684,0.25600001215934753,0.2680000066757202,0.2639999985694885,0.25999999046325684,0.24799999594688416,1.0
1.0,0.9381688237190247,0.8787158131599425,0.7942925095558167,0.6813317537307739,0.5707491040229797,0.4554102122783661,0.36266350746154785,0.3067776560783386,0.2711058259010315,0.1736028492450714,0.04280618205666542,0.0,0.10939358174800871,0.18430440127849576,0.20451843738555908,0.214030921459198,0.20927467942237857,0.2271105796098709,0.2544589638710022,0.30202141404151917,0.3341260552406311,0.39595720171928406,0.435196191072464,0.43995243310928345,0.4530321061611175,0.46848988533020014,0.4768133163452149,0.49346017837524414,0.49702733755111694,0.5243757367134094,0.5386444926261902,0.5659928917884827,0.5802615880966187,0.6028537750244141,0.6206896305084229,0.6492270827293396,0.6397145986557007,0.6432818174362183,0.6373364925384521,0.6456599235534668,0.642092764377594,0.6361474394798279,0.6076099872589111,0.5980975031852722,0.5707491040229797,0.5386444926261902,0.5101070404052734,0.48989298939704895,0.45065397024154663,0.42925089597702026,0.41617122292518616,0.4066587388515472,0.38763377070426946,0.39952436089515686,0.39239001274108887,0.3852556347846985,0.38644471764564514,0.37336504459381104,0.37336504459381104,0.38644471764564514,0.36385256052017206,0.37098690867424006,0.3721759915351867,0.38644471764564514,0.3781212866306305,0.37098690867424006,0.3793103396892547,0.3828775286674499,0.3769322335720062,0.39239001274108887,0.36979785561561584,0.39952436089515686,0.39239001274108887,0.40903687477111816,0.428061842918396,0.4458977282047272,0.4387633800506592,0.46373364329338074,0.45065397024154663,0.45065397024154663,0.4494649171829224,0.4542211592197418,0.4244946539402008,0.40903687477111816,0.4007134437561035,0.3828775286674499,0.3745540976524353,0.37098690867424006,0.35671818256378174,0.3757431507110596,0.36028537154197693,0.35671818256378174,0.3614744246006012,0.3757431507110596,0.3816884756088257,0.4209274649620056,0.6432818174362183,1.0,0.9690844416618348,0.9227110743522643,0.8668252229690552,0.8038049936294556,0.7288941740989685,0.6409037113189697,0.5291320085525513,0.435196191072464,0.33650416135787964,0.3174791932106018,0.28894174098968506,0.17479191720485687,0.08085612207651137,0.055885851383209235,0.1105826422572136,0.1807372123003006,0.19143876433372495,0.21640904247760773,0.2247324585914612,0.24613554775714871,0.0,0.0,0.0,0.0,0.0,0.0,0.0,0.0,0.0,0.0,0.0,0.0,0.0,0.0,0.0,0.0,0.0,0.0,0.0,0.0,0.0,0.0,0.0,0.0,0.0,0.0,0.0,0.0,0.0,0.0,0.0,0.0,0.0,0.0,0.0,0.0,0.0,0.0,0.0,0.0,0.0,0.0,0.0,0.0,0.0,0.0,0.0,0.0,0.0,0.0,0.0,0.0,0.0,0.0,0.0,0.0,0.0,0.0,0.0,0.0,0.0,0.0,0.0,0.0,0.0,0.0,0.0,0.0,4.0
1.0,0.6653992533683777,0.3726235628128052,0.2889733910560608,0.2927756607532501,0.31178706884384155,0.31558936834335327,0.28136882185935974,0.30038022994995117,0.29657796025276184,0.26996198296546936,0.28136882185935974,0.3079847991466522,0.30038022994995117,0.28136882185935974,0.2737642526626587,0.2927756607532501,0.2889733910560608,0.30038022994995117,0.29657796025276184,0.3193916380405426,0.3041824996471405,0.32319390773773193,0.3193916380405426,0.330798476934433,0.32699620723724365,0.33840304613113403,0.34220531582832336,0.3802281320095062,0.3460076153278351,0.3346007466316223,0.33840304613113403,0.3802281320095062,0.3460076153278351,0.34220531582832336,0.34220531582832336,0.31558936834335327,0.258555144071579,0.25095057487487793,0.25475284457206726,0.23574145138263705,0.17870722711086273,0.18631178140640256,0.17870722711086273,0.1596958190202713,0.13307984173297882,0.14828898012638092,0.15209124982357025,0.14068441092967987,0.12167300283908844,0.11787072569131853,0.102661594748497,0.12167300283908844,0.07984790951013565,0.0722433477640152,0.08745247125625609,0.07984790951013565,0.04182509332895279,0.057034220546483994,0.07604562491178513,0.045627377927303314,0.049429658800363534,0.06463878601789474,0.06463878601789474,0.057034220546483994,0.057034220546483994,0.06844106316566467,0.06463878601789474,0.07984790951013565,0.06083650141954421,0.09125475585460663,0.09885931760072708,0.1292775720357895,0.13307984173297882,0.1749049425125122,0.19391635060310364,0.1749049425125122,0.15209124982357025,0.15209124982357025,0.09505703300237656,0.08365018665790558,0.07984790951013565,0.08365018665790558,0.04182509332895279,0.06463878601789474,0.049429658800363534,0.015209125354886053,0.0,0.026615969836711884,0.022813688963651657,0.026615969836711884,0.05323193967342377,0.08745247125625609,0.06844106316566467,0.09505703300237656,0.09505703300237656,0.1292775720357895,0.12547528743743896,0.13307984173297882,0.12167300283908844,0.12547528743743896,0.015209125354886053,0.0038022813387215137,0.11406844109296797,0.12547528743743896,0.17870722711086273,0.6463878154754639,0.7984790802001953,0.5247148275375366,0.2623574137687683,0.21292775869369504,0.17870722711086273,0.19391635060310364,0.20912547409534457,0.0,0.0,0.0,0.0,0.0,0.0,0.0,0.0,0.0,0.0,0.0,0.0,0.0,0.0,0.0,0.0,0.0,0.0,0.0,0.0,0.0,0.0,0.0,0.0,0.0,0.0,0.0,0.0,0.0,0.0,0.0,0.0,0.0,0.0,0.0,0.0,0.0,0.0,0.0,0.0,0.0,0.0,0.0,0.0,0.0,0.0,0.0,0.0,0.0,0.0,0.0,0.0,0.0,0.0,0.0,0.0,0.0,0.0,0.0,0.0,0.0,0.0,0.0,0.0,0.0,0.0,0.0,0.0,0.0,0.0,0.0,0.0,0.0,0.0
0.9233716726303101,0.8007662892341615,0.38697317242622375,0.0,0.02298850566148758,0.08045977354049683,0.14176245033740997,0.17624521255493164,0.1800766289234161,0.18390804529190063,0.19540229439735413,0.18773946166038513,0.18390804529190063,0.18773946166038513,0.18773946166038513,0.15708811581134796,0.15325669944286346,0.16475096344947815,0.15708811581134796,0.15325669944286346,0.14176245033740997,0.14176245033740997,0.14176245033740997,0.13026820123195648,0.1187739446759224,0.1111111119389534,0.1072796955704689,0.08812260627746582,0.09195402264595032,0.0957854390144348,0.1072796955704689,0.1034482792019844,0.1072796955704689,0.14559386670589447,0.1800766289234161,0.1915708780288696,0.2337164729833603,0.28352490067481995,0.3256705105304718,0.3409961760044098,0.36781609058380127,0.38314175605773926,0.3984674215316773,0.38697317242622375,0.37547892332077026,0.3793103396892547,0.38314175605773926,0.3639846742153168,0.3563218414783478,0.36781609058380127,0.3639846742153168,0.3448275923728943,0.3409961760044098,0.3563218414783478,0.37164750695228577,0.3639846742153168,0.3409961760044098,0.3524904251098633,0.3563218414783478,0.3409961760044098,0.3524904251098633,0.3601532578468323,0.36781609058380127,0.3563218414783478,0.3524904251098633,0.38314175605773926,0.41762453317642206,0.4214559495449066,0.40229883790016174,0.41762453317642206,0.45210728049278254,0.4291187822818756,0.3793103396892547,0.38697317242622375,0.38314175605773926,0.3563218414783478,0.3295019268989563,0.3256705105304718,0.3141762316226959,0.30651339888572693,0.30651339888572693,0.3141762316226959,0.3180076479911804,0.3103448152542114,0.3180076479911804,0.3409961760044098,0.4406130313873291,0.6819923520088196,0.961685836315155,1.0,0.6934865713119507,0.30268198251724243,0.07279693335294724,0.14559386670589447,0.2298850566148758,0.21839080750942233,0.22605364024639127,0.24521072208881375,0.24521072208881375,0.22605364024639127,0.21072797477245328,0.2298850566148758,0.2337164729833603,0.21072797477245328,0.2068965584039688,0.21839080750942233,0.0,0.0,0.0,0.0,0.0,0.0,0.0,0.0,0.0,0.0,0.0,0.0,0.0,0.0,0.0,0.0,0.0,0.0,0.0,0.0,0.0,0.0,0.0,0.0,0.0,0.0,0.0,0.0,0.0,0.0,0.0,0.0,0.0,0.0,0.0,0.0,0.0,0.0,0.0,0.0,0.0,0.0,0.0,0.0,0.0,0.0,0.0,0.0,0.0,0.0,0.0,0.0,0.0,0.0,0.0,0.0,0.0,0.0,0.0,0.0,0.0,0.0,0.0,0.0,0.0,0.0,0.0,0.0,0.0,0.0,0.0,0.0,0.0,0.0,0.0,0.0,0.0,0.0,0.0,0.0,0.0,0.0
0.9437819123268129,0.6149914860725403,0.0,0.1005110740661621,0.09369676560163498,0.14991481602191925,0.1533219814300537,0.1686541736125946,0.1584327071905136,0.17546848952770233,0.17035774886608124,0.1788756400346756,0.17206132411956787,0.1822827905416489,0.1788756400346756,0.1908006817102432,0.18398636579513547,0.20272572338581085,0.19591140747070312,0.20783644914627075,0.19761499762535095,0.2214650809764862,0.21805791556835177,0.23850084841251373,0.23850084841251373,0.25553661584854126,0.26064735651016235,0.29301533102989197,0.30153322219848633,0.34582623839378357,0.3747870624065399,0.42930153012275696,0.46507665514945984,0.5093696713447571,0.5247018933296204,0.5076661109924316,0.4224872291088104,0.34412264823913574,0.26064735651016235,0.2214650809764862,0.18057921528816223,0.1737648993730545,0.15672913193702695,0.1584327071905136,0.1482112407684326,0.15672913193702695,0.14650766551494598,0.15161839127540588,0.1482112407684326,0.15502555668354034,0.1482112407684326,0.16183985769748688,0.14991481602191925,0.1584327071905136,0.15161839127540588,0.1635434478521347,0.15161839127540588,0.1652470231056213,0.15161839127540588,0.16183985769748688,0.14139693975448608,0.1584327071905136,0.15161839127540588,0.16183985769748688,0.14650766551494598,0.16013628244400024,0.1533219814300537,0.1533219814300537,0.1533219814300537,0.1635434478521347,0.15161839127540588,0.1584327071905136,0.15161839127540588,0.16013628244400024,0.15161839127540588,0.16013628244400024,0.15672913193702695,0.16695059835910797,0.16013628244400024,0.16695059835910797,0.16013628244400024,0.1686541736125946,0.16183985769748688,0.17035774886608124,0.1635434478521347,0.17035774886608124,0.16183985769748688,0.17206132411956787,0.1635434478521347,0.1737648993730545,0.16695059835910797,0.1788756400346756,0.1737648993730545,0.1822827905416489,0.17546848952770233,0.1822827905416489,0.1737648993730545,0.1908006817102432,0.1788756400346756,0.19250425696372983,0.18057921528816223,0.19250425696372983,0.1788756400346756,0.19761499762535095,0.1908006817102432,0.20783644914627075,0.20613287389278412,0.21805791556835177,0.21805791556835177,0.2214650809764862,0.2112436145544052,0.21465076506137848,0.1908006817102432,0.20272572338581085,0.19250425696372983,0.20783644914627075,0.2010221481323242,0.21805791556835177,0.20783644914627075,0.22487223148345947,0.20442929863929749,0.1822827905416489,0.23339012265205383,0.632027268409729,1.0,0.7683134675025939,0.11413969099521636,0.1788756400346756,0.1652470231056213,0.20272572338581085,0.23339012265205383,0.24531516432762143,0.23679727315902707,0.2470187395811081,0.2419080138206482,0.2572402060031891,0.24872231483459473,0.2623509466648102,0.25553661584854126,0.2640545070171356,0.2589437961578369,0.27257239818573,0.2674616575241089,0.27597954869270325,0.2691652476787567,0.2844974398612976,0.28279387950897217,0.2896081805229187,0.2879045903682709,0.3066439628601074,0.3049403727054596,0.0,0.0,0.0,0.0,0.0,0.0,0.0,0.0,0.0,0.0,0.0,0.0,0.0,0.0,0.0,0.0,0.0,0.0,0.0,0.0,0.0,0.0,0.0,0.0,0.0,0.0,0.0,0.0,0.0,0.0,0.0,0.0,0.0,0.0,0.0,0.0,0.0
1.0,0.9409660100936889,0.41502684354782104,0.13059033453464508,0.07155635207891464,0.03041144832968712,0.03577817603945732,0.04651162773370742,0.07871198654174805,0.21466904878616333,0.3738819360733032,0.42933809757232666,0.43828263878822327,0.4633273780345917,0.46869409084320063,0.4633273780345917,0.4579606354236602,0.4561717212200165,0.4472271800041198,0.42576029896736145,0.4132379293441773,0.4132379293441773,0.395348846912384,0.38282647728919983,0.3667263090610504,0.3577817678451538,0.3667263090610504,0.3577817678451538,0.3506261110305786,0.3542039394378662,0.3649373948574066,0.3738819360733032,0.3881931900978088,0.41860464215278625,0.44364938139915466,0.4472271800041198,0.4508050084114074,0.4669051766395569,0.4865831732749939,0.4865831732749939,0.4865831732749939,0.4901610016822815,0.4901610016822815,0.4883720874786377,0.4865831732749939,0.4955277144908905,0.4973166286945343,0.48300537467002863,0.47584971785545355,0.4847942888736725,0.4901610016822815,0.4847942888736725,0.47584971785545355,0.4812164604663849,0.4883720874786377,0.4847942888736725,0.4776386320590973,0.4883720874786377,0.4901610016822815,0.4812164604663849,0.4865831732749939,0.4919499158859253,0.4955277144908905,0.48300537467002863,0.4883720874786377,0.4973166286945343,0.5026833415031433,0.49373883008956915,0.4919499158859253,0.49373883008956915,0.49373883008956915,0.49373883008956915,0.4919499158859253,0.4973166286945343,0.5008944272994995,0.4919499158859253,0.48300537467002863,0.4973166286945343,0.5026833415031433,0.5008944272994995,0.49373883008956915,0.5152057409286499,0.5277280807495117,0.5348837375640869,0.5438282489776611,0.5760286450386047,0.5724508166313171,0.5474060773849487,0.5313059091567993,0.5545617341995239,0.5813953280448914,0.5241502523422241,0.4865831732749939,0.4883720874786377,0.47584971785545355,0.46869409084320063,0.4633273780345917,0.4633273780345917,0.4561717212200165,0.4561717212200165,0.45259392261505127,0.4633273780345917,0.4651162922382354,0.45259392261505127,0.4239713847637177,0.47584971785545355,0.6296958923339844,0.7262969613075256,0.7066189646720886,0.8962432742118835,0.9821109175682069,0.5062611699104309,0.09302325546741484,0.01788908801972866,0.005366726312786341,0.0,0.026833631098270416,0.13416816294193268,0.302325576543808,0.38282647728919983,0.3989266455173493,0.42218247056007385,0.44007155299186707,0.43470484018325806,0.41860464215278625,0.43291592597961426,0.42576029896736145,0.41860464215278625,0.39713773131370544,0.0,0.0,0.0,0.0,0.0,0.0,0.0,0.0,0.0,0.0,0.0,0.0,0.0,0.0,0.0,0.0,0.0,0.0,0.0,0.0,0.0,0.0,0.0,0.0,0.0,0.0,0.0,0.0,0.0,0.0,0.0,0.0,0.0,0.0,0.0,0.0,0.0,0.0,0.0,0.0,0.0,0.0,0.0,0.0,0.0,0.0,0.0,0.0,0.0,0.0,0.0,0.0,0.0,0.0,0.0,0.0,0.0,0.0,1.0
1.0,0.8420168161392211,0.4285714328289032,0.23865546286106107,0.16134454309940338,0.14621849358081815,0.1260504275560379,0.11428571492433548,0.1126050427556038,0.10756302624940872,0.1092436984181404,0.10756302624940872,0.10420168191194534,0.10252100974321364,0.10588235408067705,0.09243697673082352,0.09747899323701859,0.09075630456209183,0.09579832106828688,0.09075630456209183,0.0941176488995552,0.09915966540575029,0.10252100974321364,0.11764705926179884,0.13277311623096466,0.1428571492433548,0.16638655960559845,0.17478992044925687,0.18655462563037872,0.1915966421365738,0.19831933081150055,0.19495798647403717,0.18655462563037872,0.17815126478672028,0.1731092482805252,0.1680672317743301,0.16302521526813507,0.16470588743686676,0.16974790394306183,0.16470588743686676,0.16638655960559845,0.1596638709306717,0.16638655960559845,0.16302521526813507,0.17983193695545197,0.19663865864276883,0.22689075767993927,0.27731093764305115,0.3529411852359772,0.4319327771663666,0.5193277597427368,0.5848739743232727,0.6252101063728333,0.6487395167350769,0.6067227125167847,0.5663865804672241,0.5647059082984924,0.556302547454834,0.5865546464920044,0.5428571701049805,0.37142857909202576,0.2184873968362808,0.14621849358081815,0.10420168191194534,0.07563025504350662,0.05042016878724098,0.03865546360611915,0.028571428731083866,0.0235294122248888,0.020168067887425423,0.01344537828117609,0.0016806722851470113,0.0,0.0,0.0,0.0,0.0,0.0,0.0,0.0,0.0,0.0,0.0,0.0,0.0,0.0,0.0,0.0,0.0,0.0,0.0,0.0,0.0,0.0,0.0,0.0,0.0,0.0,0.0,0.0,0.0,0.0,0.0,0.0,0.0,0.0,0.0,0.0,0.0,0.0,0.0,0.0,0.0,0.0,0.0,0.0,0.0,0.0,0.0,0.0,0.0,0.0,0.0,0.0,0.0,0.0,0.0,0.0,0.0,0.0,0.0,0.0,0.0,0.0,0.0,0.0,0.0,0.0,0.0,0.0,0.0,0.0,0.0,0.0,0.0,0.0,0.0,0.0,0.0,0.0,0.0,0.0,0.0,0.0,0.0,0.0,0.0,0.0,0.0,0.0,0.0,0.0,0.0,0.0,0.0,0.0,0.0,0.0,0.0,0.0,0.0,0.0,0.0,0.0,0.0,0.0,0.0,0.0,0.0,0.0,0.0,0.0,0.0,0.0,0.0,0.0,0.0,3.0
0.5764706134796143,0.5411764979362488,0.42745098471641535,0.4156862795352936,0.4431372582912445,0.47058823704719543,0.4352941215038299,0.30980393290519714,0.1764705926179886,0.11372549086809158,0.07058823853731155,0.06666667014360428,0.062745101749897,0.05882352963089943,0.03529411926865578,0.05098039284348488,0.04313725605607033,0.0470588244497776,0.05098039284348488,0.07450980693101883,0.054901961237192154,0.08235294371843338,0.05882352963089943,0.09019608050584792,0.09019608050584792,0.11372549086809158,0.10588235408067705,0.11372549086809158,0.1098039224743843,0.13725490868091583,0.1411764770746231,0.1725490242242813,0.1725490242242813,0.19607843458652496,0.20000000298023224,0.22745098173618317,0.23137255012989044,0.2549019753932953,0.24705882370471952,0.26274511218070984,0.239215686917305,0.239215686917305,0.1843137294054031,0.1568627506494522,0.11764705926179884,0.1098039224743843,0.07450980693101883,0.07058823853731155,0.04313725605607033,0.0470588244497776,0.027450980618596077,0.0313725508749485,0.01568627543747425,0.0313725508749485,0.01960784383118153,0.027450980618596077,0.01568627543747425,0.0235294122248888,0.007843137718737125,0.01960784383118153,0.01568627543747425,0.01960784383118153,0.0117647061124444,0.0235294122248888,0.007843137718737125,0.0235294122248888,0.003921568859368563,0.003921568859368563,0.0,0.01568627543747425,0.003921568859368563,0.01960784383118153,0.003921568859368563,0.003921568859368563,0.0,0.0117647061124444,0.003921568859368563,0.0117647061124444,0.007843137718737125,0.01568627543747425,0.0,0.0117647061124444,0.003921568859368563,0.01568627543747425,0.007843137718737125,0.0117647061124444,0.007843137718737125,0.01960784383118153,0.0,0.0235294122248888,0.007843137718737125,0.01960784383118153,0.007843137718737125,0.0235294122248888,0.01568627543747425,0.04313725605607033,0.01960784383118153,0.03921568766236306,0.0313725508749485,0.04313725605607033,0.03529411926865578,0.054901961237192154,0.0470588244497776,0.05882352963089943,0.04313725605607033,0.062745101749897,0.05098039284348488,0.06666667014360428,0.054901961237192154,0.062745101749897,0.05098039284348488,0.06666667014360428,0.05882352963089943,0.07450980693101883,0.05882352963089943,0.062745101749897,0.05882352963089943,0.07058823853731155,0.054901961237192154,0.07450980693101883,0.06666667014360428,0.07450980693101883,0.07058823853731155,0.08627451211214066,0.07058823853731155,0.08627451211214066,0.07450980693101883,0.09019608050584792,0.08627451211214066,0.09803921729326248,0.0941176488995552,0.0941176488995552,0.08627451211214066,0.0941176488995552,0.09019608050584792,0.1098039224743843,0.10588235408067705,0.125490203499794,0.11764705926179884,0.13725490868091583,0.13333334028720856,0.1568627506494522,0.14901961386203763,0.16470588743686676,0.16470588743686676,0.1764705926179886,0.14901961386203763,0.16078431904315948,0.13333334028720856,0.13725490868091583,0.10588235408067705,0.11764705926179884,0.10588235408067705,0.125490203499794,0.11372549086809158,0.125490203499794,0.11372549086809158,0.12941177189350128,0.11372549086809158,0.13725490868091583,0.125490203499794,0.1764705926179886,0.20000000298023224,0.3686274588108062,0.6196078658103943,0.8666666746139526,1.0,0.6431372761726379,0.25882354378700256,0.1568627506494522,0.1843137294054031,0.1725490242242813,0.0,0.0,0.0,0.0,0.0,0.0,0.0,0.0,0.0,0.0,0.0,0.0,0.0,0.0,0.0,1.0
1.0,0.9013840556144713,0.6176470518112183,0.4377162754535675,0.49653980135917664,0.5224913358688354,0.49480968713760376,0.4757785499095917,0.44290658831596375,0.4463667869567871,0.4117647111415863,0.3944636583328247,0.37197232246398926,0.37197232246398926,0.3529411852359772,0.35640138387680054,0.3408304452896118,0.32871973514556885,0.31141868233680725,0.30449825525283813,0.29411765933036804,0.30449825525283813,0.2820069193840027,0.2820069193840027,0.25778546929359436,0.24221453070640564,0.21453286707401276,0.20934255421161652,0.16435986757278442,0.13321799039840698,0.1038062274456024,0.08650518953800201,0.05882352963089943,0.024221453815698624,0.0,0.0034602077212184668,0.0,0.025951556861400604,0.05017301067709922,0.10034602135419844,0.1211072653532028,0.1678200662136078,0.1989619433879852,0.23875433206558228,0.24913494288921356,0.25951558351516724,0.26816609501838684,0.28373703360557556,0.28546711802482605,0.29411765933036804,0.29584774374961853,0.3148788809776306,0.3148788809776306,0.3235294222831726,0.3148788809776306,0.3235294222831726,0.32179930806159973,0.32698962092399597,0.31833910942077637,0.33910036087036133,0.3339100480079651,0.3408304452896118,0.33044981956481934,0.0,0.0,0.0,0.0,0.0,0.0,0.0,0.0,0.0,0.0,0.0,0.0,0.0,0.0,0.0,0.0,0.0,0.0,0.0,0.0,0.0,0.0,0.0,0.0,0.0,0.0,0.0,0.0,0.0,0.0,0.0,0.0,0.0,0.0,0.0,0.0,0.0,0.0,0.0,0.0,0.0,0.0,0.0,0.0,0.0,0.0,0.0,0.0,0.0,0.0,0.0,0.0,0.0,0.0,0.0,0.0,0.0,0.0,0.0,0.0,0.0,0.0,0.0,0.0,0.0,0.0,0.0,0.0,0.0,0.0,0.0,0.0,0.0,0.0,0.0,0.0,0.0,0.0,0.0,0.0,0.0,0.0,0.0,0.0,0.0,0.0,0.0,0.0,0.0,0.0,0.0,0.0,0.0,0.0,0.0,0.0,0.0,0.0,0.0,0.0,0.0,0.0,0.0,0.0,0.0,0.0,0.0,0.0,0.0,0.0,0.0,0.0,0.0,0.0,0.0,0.0,0.0,0.0,0.0,0.0,0.0,0.0,0.0,0.0,4.0
0.868385374546051,0.6770691871643066,0.3731343150138855,0.11126187443733215,0.0054274084977805614,0.09633649885654448,0.14382632076740265,0.12211669236421584,0.10854817181825636,0.1071913167834282,0.11126187443733215,0.09905020147562027,0.09769335389137267,0.1071913167834282,0.10990501940250395,0.12075983732938766,0.127544105052948,0.14111262559890747,0.16553595662117004,0.18317502737045288,0.19402985274791715,0.22795115411281583,0.25780189037323,0.29036635160446167,0.3107191324234009,0.3297150731086731,0.3649932146072387,0.39213025569915766,0.40976932644844055,0.43283581733703613,0.4464043378829956,0.4341926872730255,0.4341926872730255,0.4233378469944,0.4016282260417938,0.385345995426178,0.35685211420059204,0.33649933338165283,0.3188602328300476,0.2957937717437744,0.2686567306518554,0.25644505023956293,0.23880596458911896,0.22659429907798767,0.20895522832870483,0.2130257785320282,0.22659429907798767,0.2143826335668564,0.2238806039094925,0.25915876030921936,0.2781546711921692,0.2890095114707947,0.2998643219470978,0.29172319173812866,0.2645861506462097,0.20895522832870483,0.1478968858718872,0.17367707192897797,0.3066485822200775,0.47625508904457087,0.6309362053871155,0.8113975524902344,0.9470827579498291,1.0,0.9864314794540405,0.9416553378105165,0.9131614565849304,0.8792401552200316,0.7883310914039611,0.5997286438941956,0.3405698835849762,0.1343283653259277,0.0,0.0,0.0,0.0,0.0,0.0,0.0,0.0,0.0,0.0,0.0,0.0,0.0,0.0,0.0,0.0,0.0,0.0,0.0,0.0,0.0,0.0,0.0,0.0,0.0,0.0,0.0,0.0,0.0,0.0,0.0,0.0,0.0,0.0,0.0,0.0,0.0,0.0,0.0,0.0,0.0,0.0,0.0,0.0,0.0,0.0,0.0,0.0,0.0,0.0,0.0,0.0,0.0,0.0,0.0,0.0,0.0,0.0,0.0,0.0,0.0,0.0,0.0,0.0,0.0,0.0,0.0,0.0,0.0,0.0,0.0,0.0,0.0,0.0,0.0,0.0,0.0,0.0,0.0,0.0,0.0,0.0,0.0,0.0,0.0,0.0,0.0,0.0,0.0,0.0,0.0,0.0,0.0,0.0,0.0,0.0,0.0,0.0,0.0,0.0,0.0,0.0,0.0,0.0,0.0,0.0,0.0,0.0,0.0,0.0,0.0,0.0,0.0,0.0,0.0,0.0
1.0,0.741284430027008,0.2880733907222748,0.12660551071166992,0.12660551071166992,0.0587155967950821,0.03669724613428116,0.0660550445318222,0.0587155967950821,0.04036697372794151,0.078899085521698,0.02568807266652584,0.05321101099252701,0.06238532066345214,0.056880734860897064,0.05321101099252701,0.08440367132425308,0.08256880939006805,0.08073394745588303,0.08807339519262314,0.08990825712680817,0.09357798099517822,0.1119266077876091,0.1119266077876091,0.12110091745853424,0.12293577939271925,0.13027523458003995,0.1449541300535202,0.15229357779026031,0.14862385392189023,0.13577981293201447,0.12110091745853424,0.11009174585342409,0.08256880939006805,0.08807339519262314,0.07339449226856232,0.08073394745588303,0.0587155967950821,0.06055045872926712,0.020183486863970757,0.0458715595304966,0.0,0.03669724613428116,0.0,0.03669724613428116,0.0330275222659111,0.09724770486354829,0.0,0.09724770486354829,0.08623853325843811,0.0917431190609932,0.08623853325843811,0.09724770486354829,0.10275229066610336,0.09357798099517822,0.11009174585342409,0.11559633165597916,0.10825688391923904,0.13027523458003995,0.11559633165597916,0.11376146972179411,0.0990825667977333,0.11559633165597916,0.1192660555243492,0.12660551071166992,0.14311926066875455,0.11743119359016418,0.13027523458003995,0.13027523458003995,0.08990825712680817,0.06238532066345214,0.05321101099252701,0.0458715595304966,0.047706421464681625,0.047706421464681625,0.06422018259763718,0.05321101099252701,0.01284403633326292,0.04036697372794151,0.02935779839754105,0.157798171043396,0.3743119239807129,0.6366972327232361,0.45688074827194214,0.14128440618515015,0.06788990646600723,0.0458715595304966,0.06055045872926712,0.04036697372794151,0.03486238420009613,0.0330275222659111,0.04403669759631157,0.05137614533305168,0.05321101099252701,0.06055045872926712,0.05321101099252701,0.06422018259763718,0.06055045872926712,0.0990825667977333,0.078899085521698,0.10091742873191832,0.0,0.0,0.0,0.0,0.0,0.0,0.0,0.0,0.0,0.0,0.0,0.0,0.0,0.0,0.0,0.0,0.0,0.0,0.0,0.0,0.0,0.0,0.0,0.0,0.0,0.0,0.0,0.0,0.0,0.0,0.0,0.0,0.0,0.0,0.0,0.0,0.0,0.0,0.0,0.0,0.0,0.0,0.0,0.0,0.0,0.0,0.0,0.0,0.0,0.0,0.0,0.0,0.0,0.0,0.0,0.0,0.0,0.0,0.0,0.0,0.0,0.0,0.0,0.0,0.0,0.0,0.0,0.0,0.0,0.0,0.0,0.0,0.0,0.0,0.0,0.0,0.0,0.0,0.0,0.0,0.0,0.0,0.0,0.0,0.0,0.0,3.0
0.0,0.24054983258247375,0.3986254334449768,0.4020618498325348,0.3917525708675385,0.3951890170574188,0.4020618498325348,0.38831615447998047,0.3986254334449768,0.3917525708675385,0.40893471240997314,0.40893471240997314,0.41237112879753113,0.4158075749874115,0.4364261031150818,0.44329896569252014,0.4501718282699585,0.49484536051750183,0.5051546096801758,0.5395188927650452,0.5635738968849182,0.5738831758499146,0.5738831758499146,0.5704467296600342,0.5498281717300415,0.5532646179199219,0.5223367810249329,0.5017182230949402,0.4845360815525055,0.4845360815525055,0.4845360815525055,0.4707903861999512,0.4639175236225128,0.4604811072349548,0.4639175236225128,0.4742268025875091,0.4742268025875091,0.4810996651649475,0.4982817769050598,0.49140894412994385,0.49140894412994385,0.5017182230949402,0.5051546096801758,0.49484536051750183,0.4982817769050598,0.5051546096801758,0.5154638886451721,0.5017182230949402,0.5154638886451721,0.5154638886451721,0.5051546096801758,0.5120275020599365,0.5085910558700562,0.5223367810249329,0.5223367810249329,0.5395188927650452,0.5326460599899292,0.5292096138000488,0.5120275020599365,0.5051546096801758,0.5051546096801758,0.5017182230949402,0.5189003348350525,0.5017182230949402,0.5223367810249329,0.5154638886451721,0.5292096138000488,0.5429553389549255,0.5429553389549255,0.5635738968849182,0.7525773048400879,0.876288652420044,1.0,0.9587628841400148,0.8178694248199463,0.6357388496398926,0.4982817769050598,0.4604811072349548,0.4364261031150818,0.44673538208007807,0.4295532703399658,0.4501718282699585,0.4501718282699585,0.4536082446575165,0.4604811072349548,0.4536082446575165,0.45704466104507446,0.4673539400100708,0.4673539400100708,0.0,0.0,0.0,0.0,0.0,0.0,0.0,0.0,0.0,0.0,0.0,0.0,0.0,0.0,0.0,0.0,0.0,0.0,0.0,0.0,0.0,0.0,0.0,0.0,0.0,0.0,0.0,0.0,0.0,0.0,0.0,0.0,0.0,0.0,0.0,0.0,0.0,0.0,0.0,0.0,0.0,0.0,0.0,0.0,0.0,0.0,0.0,0.0,0.0,0.0,0.0,0.0,0.0,0.0,0.0,0.0,0.0,0.0,0.0,0.0,0.0,0.0,0.0,0.0,0.0,0.0,0.0,0.0,0.0,0.0,0.0,0.0,0.0,0.0,0.0,0.0,0.0,0.0,0.0,0.0,0.0,0.0,0.0,0.0,0.0,0.0,0.0,0.0,0.0,0.0,0.0,0.0,0.0,0.0,0.0,0.0,0.0,0.0,3.0
1.0,0.9522546529769896,0.41644561290740967,0.0,0.08488063514232635,0.12201591581106185,0.10610079765319824,0.1034482792019844,0.09283819794654846,0.09549071639776228,0.08753315359354019,0.09549071639776228,0.09814323484897612,0.09814323484897612,0.08753315359354019,0.07957559823989868,0.09283819794654846,0.08488063514232635,0.09283819794654846,0.09018567949533463,0.1034482792019844,0.1034482792019844,0.12201591581106185,0.12732096016407013,0.12997347116470337,0.14323607087135315,0.15649867057800293,0.15915119647979736,0.16710875928401947,0.18037135899066925,0.18832890689373016,0.19363395869731903,0.2068965584039688,0.2068965584039688,0.20159150660037992,0.19363395869731903,0.18037135899066925,0.15915119647979736,0.14854110777378082,0.14854110777378082,0.12466843426227568,0.12201591581106185,0.11140583455562592,0.10079575330018996,0.10079575330018996,0.09283819794654846,0.10875331610441208,0.11140583455562592,0.11405835300683977,0.11936339735984802,0.11405835300683977,0.11405835300683977,0.12732096016407013,0.12997347116470337,0.12201591581106185,0.12201591581106185,0.11671087890863419,0.12201591581106185,0.11140583455562592,0.11405835300683977,0.11140583455562592,0.11671087890863419,0.11140583455562592,0.12466843426227568,0.11671087890863419,0.12732096016407013,0.11140583455562592,0.11936339735984802,0.10610079765319824,0.11671087890863419,0.11405835300683977,0.10875331610441208,0.11140583455562592,0.10875331610441208,0.11140583455562592,0.11140583455562592,0.11405835300683977,0.11936339735984802,0.10610079765319824,0.11405835300683977,0.11405835300683977,0.11140583455562592,0.12201591581106185,0.12201591581106185,0.12201591581106185,0.15119363367557523,0.21220159530639648,0.4137931168079376,0.702917754650116,0.9761273264884949,0.8010610342025757,0.27586206793785095,0.015915120020508766,0.12732096016407013,0.10079575330018996,0.11671087890863419,0.09549071639776228,0.10079575330018996,0.09283819794654846,0.07957559823989868,0.07161803543567657,0.07161803543567657,0.08222811669111252,0.08222811669111252,0.0,0.0,0.0,0.0,0.0,0.0,0.0,0.0,0.0,0.0,0.0,0.0,0.0,0.0,0.0,0.0,0.0,0.0,0.0,0.0,0.0,0.0,0.0,0.0,0.0,0.0,0.0,0.0,0.0,0.0,0.0,0.0,0.0,0.0,0.0,0.0,0.0,0.0,0.0,0.0,0.0,0.0,0.0,0.0,0.0,0.0,0.0,0.0,0.0,0.0,0.0,0.0,0.0,0.0,0.0,0.0,0.0,0.0,0.0,0.0,0.0,0.0,0.0,0.0,0.0,0.0,0.0,0.0,0.0,0.0,0.0,0.0,0.0,0.0,0.0,0.0,0.0,0.0,0.0,0.0,0.0,0.0,0.0,0.0
0.9387755393981932,0.9464285969734192,0.2678571343421936,0.0,0.21173469722270963,0.21683673560619351,0.22704081237316132,0.2551020383834839,0.2091836780309677,0.18367347121238708,0.17091836035251615,0.19132652878761292,0.18367347121238708,0.18877550959587097,0.18622449040412903,0.21173469722270963,0.21938775479793549,0.2321428507566452,0.24744898080825803,0.31122449040412903,0.3035714328289032,0.32908162474632263,0.32908162474632263,0.3647959232330322,0.34948980808258057,0.3647959232330322,0.36989796161651606,0.3035714328289032,0.2857142984867096,0.2627550959587097,0.2448979616165161,0.24234694242477417,0.22704081237316132,0.2321428507566452,0.20408163964748385,0.2321428507566452,0.2091836780309677,0.25,0.25,0.22448979318141937,0.24744898080825803,0.2857142984867096,0.28316327929496765,0.28316327929496765,0.35204082727432245,0.6454081535339355,1.0,0.9846938848495485,0.36989796161651606,0.010204081423580647,0.15816326439380643,0.24744898080825803,0.2448979616165161,0.2602040767669678,0.3035714328289032,0.13265305757522583,0.0,0.0,0.0,0.0,0.0,0.0,0.0,0.0,0.0,0.0,0.0,0.0,0.0,0.0,0.0,0.0,0.0,0.0,0.0,0.0,0.0,0.0,0.0,0.0,0.0,0.0,0.0,0.0,0.0,0.0,0.0,0.0,0.0,0.0,0.0,0.0,0.0,0.0,0.0,0.0,0.0,0.0,0.0,0.0,0.0,0.0,0.0,0.0,0.0,0.0,0.0,0.0,0.0,0.0,0.0,0.0,0.0,0.0,0.0,0.0,0.0,0.0,0.0,0.0,0.0,0.0,0.0,0.0,0.0,0.0,0.0,0.0,0.0,0.0,0.0,0.0,0.0,0.0,0.0,0.0,0.0,0.0,0.0,0.0,0.0,0.0,0.0,0.0,0.0,0.0,0.0,0.0,0.0,0.0,0.0,0.0,0.0,0.0,0.0,0.0,0.0,0.0,0.0,0.0,0.0,0.0,0.0,0.0,0.0,0.0,0.0,0.0,0.0,0.0,0.0,0.0,0.0,0.0,0.0,0.0,0.0,0.0,0.0,0.0,0.0,0.0,0.0,0.0,0.0,0.0,0.0,1.0
0.8525252342224121,0.9494949579238893,0.9171717166900635,0.8606060743331909,0.800000011920929,0.7757575511932373,0.7434343695640563,0.7636363506317139,0.7010101079940796,0.5555555820465088,0.3676767647266388,0.27676767110824585,0.21414141356945035,0.20000000298023224,0.15757575631141663,0.13939394056797028,0.1151515170931816,0.10505050420761108,0.08080808073282242,0.07676767557859421,0.05656565725803375,0.04646464809775352,0.02626262605190277,0.024242423474788662,0.010101010091602802,0.020202020183205605,0.0,0.016161616891622543,0.004040404222905636,0.0181818176060915,0.028282828629016876,0.05858585983514786,0.06666667014360428,0.11919192224740982,0.13939394056797028,0.16969697177410123,0.1878787875175476,0.21616162359714508,0.226262629032135,0.2363636344671249,0.23232322931289673,0.24646463990211487,0.2363636344671249,0.2525252401828766,0.23838384449481964,0.2525252401828766,0.23838384449481964,0.24848484992980957,0.24040403962135312,0.2585858702659607,0.2505050599575043,0.2626262605190277,0.2505050599575043,0.2646464705467224,0.256565660238266,0.27474746108055115,0.2626262605190277,0.27676767110824585,0.2666666805744171,0.27474746108055115,0.27070707082748413,0.28282827138900757,0.27070707082748413,0.28282827138900757,0.26868686079978943,0.27676767110824585,0.27070707082748413,0.290909081697464,0.27070707082748413,0.28484848141670227,0.28080809116363525,0.286868691444397,0.27070707082748413,0.27676767110824585,0.27676767110824585,0.2888889014720917,0.27474746108055115,0.290909081697464,0.28282827138900757,0.2929292917251587,0.28080809116363525,0.2989898920059204,0.286868691444397,0.2949495017528534,0.2929292917251587,0.3010101020336151,0.290909081697464,0.3030303120613098,0.2888889014720917,0.31919193267822266,0.3232323229312897,0.361616164445877,0.3636363744735718,0.35757574439048767,0.3313131332397461,0.31919193267822266,0.3010101020336151,0.2989898920059204,0.2929292917251587,0.3030303120613098,0.2949495017528534,0.31919193267822266,0.3010101020336151,0.30505049228668213,0.4424242377281189,0.79191917181015,1.0,0.5959596037864685,0.27474746108055115,0.3010101020336151,0.30707070231437683,0.3030303120613098,0.2969697117805481,0.3010101020336151,0.2969697117805481,0.30707070231437683,0.2949495017528534,0.30909091234207153,0.290909081697464,0.0,0.0,0.0,0.0,0.0,0.0,0.0,0.0,0.0,0.0,0.0,0.0,0.0,0.0,0.0,0.0,0.0,0.0,0.0,0.0,0.0,0.0,0.0,0.0,0.0,0.0,0.0,0.0,0.0,0.0,0.0,0.0,0.0,0.0,0.0,0.0,0.0,0.0,0.0,0.0,0.0,0.0,0.0,0.0,0.0,0.0,0.0,0.0,0.0,0.0,0.0,0.0,0.0,0.0,0.0,0.0,0.0,0.0,0.0,0.0,0.0,0.0,0.0,0.0,0.0,0.0,0.0,0.0,2.0
0.7040358781814575,0.5934230089187622,0.4917787611484527,0.3736920654773712,0.26158446073532104,0.1434977650642395,0.07922272384166716,0.016442451626062393,0.0,0.005979073233902454,0.05530642718076706,0.13452914357185364,0.2630792260169983,0.3288490176200866,0.3766816258430481,0.42152467370033264,0.481315404176712,0.5291479825973511,0.5754858255386353,0.5904334783554077,0.6128550171852112,0.6233183741569519,0.6427503824234009,0.6442451477050781,0.6547085046768188,0.6517189741134644,0.6636771559715271,0.6666666865348816,0.6920777559280396,0.701046347618103,0.7144992351531982,0.7219731211662292,0.7399103045463562,0.7548580169677734,0.7713004350662231,0.7847533822059632,0.8071748614311217,0.8176382780075073,0.841554582118988,0.8535127043724061,0.878923773765564,0.8878923654556276,0.9028400778770447,0.8983557820320129,0.911808669567108,0.8983557820320129,0.8953661918640136,0.865470826625824,0.8460388779640199,0.8071748614311217,0.7757847309112549,0.7339312434196472,0.7085201740264893,0.6666666865348816,0.6397608518600464,0.6083707213401794,0.5934230089187622,0.5769805908203125,0.5769805908203125,0.5635276436805725,0.560538113117218,0.5485799908638,0.5560538172721863,0.5500747561454773,0.554559051990509,0.5500747561454773,0.560538113117218,0.5500747561454773,0.560538113117218,0.5485799908638,0.5530642867088318,0.5381165742874146,0.5426008701324463,0.5336322784423828,0.5455904603004456,0.541106104850769,0.5440956354141235,0.5381165742874146,0.541106104850769,0.5366218090057373,0.5470852255821228,0.5381165742874146,0.541106104850769,0.5336322784423828,0.5426008701324463,0.5321375131607056,0.5366218090057373,0.5291479825973511,0.5321375131607056,0.5291479825973511,0.5396113395690918,0.5366218090057373,0.5440956354141235,0.541106104850769,0.5455904603004456,0.5396113395690918,0.5426008701324463,0.5366218090057373,0.541106104850769,0.5381165742874146,0.5440956354141235,0.5440956354141235,0.5455904603004456,0.541106104850769,0.5680119395256042,0.6517189741134644,1.0,0.9177877306938172,0.8355754613876343,0.7414050698280334,0.6502242088317871,0.5321375131607056,0.42002990841865534,0.2825112044811249,0.18834081292152405,0.11509715765714644,0.08071748912334442,0.07473841309547424,0.10911808907985689,0.1704035848379135,0.2974588871002197,0.3423019349575043,0.3632287085056305,0.40807175636291504,0.470852017402649,0.5231689214706421,0.5844544172286987,0.6098654866218567,0.6337817907333374,0.6397608518600464,0.0,0.0,0.0,0.0,0.0,0.0,0.0,0.0,0.0,0.0,0.0,0.0,0.0,0.0,0.0,0.0,0.0,0.0,0.0,0.0,0.0,0.0,0.0,0.0,0.0,0.0,0.0,0.0,0.0,0.0,0.0,0.0,0.0,0.0,0.0,0.0,0.0,0.0,0.0,0.0,0.0,0.0,0.0,0.0,0.0,0.0,0.0,0.0,0.0,0.0,0.0,0.0,0.0,0.0,0.0,0.0,0.0,4.0
0.9541284441947936,0.931192636489868,0.2568807303905487,0.01834862306714058,0.0917431190609932,0.13302752375602722,0.07339449226856232,0.13302752375602722,0.2110091745853424,0.15596330165863037,0.14678898453712463,0.197247713804245,0.2844036817550659,0.31192660331726074,0.2889908254146576,0.2844036817550659,0.29357796907424927,0.302752286195755,0.3302752375602722,0.30733945965766907,0.30733945965766907,0.3348623812198639,0.3348623812198639,0.30733945965766907,0.29357796907424927,0.3165137469768524,0.3348623812198639,0.37155961990356445,0.3899082541465759,0.3623853325843811,0.38073393702507013,0.444954127073288,0.48165136575698847,0.5091742873191833,0.48165136575698847,0.48165136575698847,0.5321100950241089,0.5596330165863037,0.5458715558052063,0.5275229215621948,0.4954128563404083,0.4770642220973969,0.444954127073288,0.4220183491706848,0.40366971492767334,0.37155961990356445,0.3211009204387665,0.2889908254146576,0.2844036817550659,0.26146790385246277,0.24770642817020416,0.2568807303905487,0.26605504751205444,0.2844036817550659,0.2844036817550659,0.26605504751205444,0.29357796907424927,0.29357796907424927,0.2568807303905487,0.24311926960945127,0.26146790385246277,0.27981650829315186,0.2706421911716461,0.2706421911716461,0.29357796907424927,0.29357796907424927,0.29816514253616333,0.29357796907424927,0.30733945965766907,0.302752286195755,0.26605504751205444,0.2293577939271927,0.26605504751205444,0.302752286195755,0.27981650829315186,0.26146790385246277,0.29357796907424927,0.2844036817550659,0.26146790385246277,0.27981650829315186,0.29357796907424927,0.29816514253616333,0.29357796907424927,0.29816514253616333,0.32568806409835815,0.3348623812198639,0.35779815912246704,0.3440366983413696,0.38073393702507013,0.48165136575698847,0.7385321259498597,1.0,0.5779816508293152,0.022935779765248295,0.0,0.07798165082931519,0.08715596050024033,0.059633027762174606,0.13302752375602722,0.17431192100048065,0.14220184087753296,0.1192660555243492,0.12385321408510208,0.197247713804245,0.2844036817550659,0.29357796907424927,0.26146790385246277,0.2889908254146576,0.0,0.0,0.0,0.0,0.0,0.0,0.0,0.0,0.0,0.0,0.0,0.0,0.0,0.0,0.0,0.0,0.0,0.0,0.0,0.0,0.0,0.0,0.0,0.0,0.0,0.0,0.0,0.0,0.0,0.0,0.0,0.0,0.0,0.0,0.0,0.0,0.0,0.0,0.0,0.0,0.0,0.0,0.0,0.0,0.0,0.0,0.0,0.0,0.0,0.0,0.0,0.0,0.0,0.0,0.0,0.0,0.0,0.0,0.0,0.0,0.0,0.0,0.0,0.0,0.0,0.0,0.0,0.0,0.0,0.0,0.0,0.0,0.0,0.0,0.0,0.0,0.0,0.0,0.0,1.0
0.9412997961044312,0.945492684841156,0.8700209856033325,0.8259958028793334,0.7819706201553344,0.74842768907547,0.7232704162597656,0.6394129991531372,0.42767295241355896,0.2557651996612549,0.15513627231121063,0.138364776968956,0.098532497882843,0.09224318712949754,0.07966457307338715,0.07756813615560532,0.05870021134614944,0.052410900592803955,0.03563941270112991,0.03144654259085655,0.01677148789167404,0.020964359864592552,0.0041928719729185104,0.008385743945837021,0.0,0.010482179932296276,0.0020964359864592552,0.020964359864592552,0.03144654259085655,0.069182388484478,0.09224318712949754,0.138364776968956,0.1677148789167404,0.20964360237121585,0.2180293500423431,0.24109014868736267,0.23270440101623535,0.24528302252292633,0.24318657815456393,0.236897274851799,0.23480084538459775,0.24109014868736267,0.23480084538459775,0.24109014868736267,0.23899370431900024,0.24947589635849,0.24947589635849,0.2515723407268524,0.25366875529289246,0.26624739170074463,0.2557651996612549,0.2725366950035095,0.2641509473323822,0.2725366950035095,0.2704402506351471,0.2725366950035095,0.27463310956954956,0.2788259983062744,0.2641509473323822,0.2725366950035095,0.2725366950035095,0.276729553937912,0.2683438062667846,0.276729553937912,0.27463310956954956,0.28930819034576416,0.2725366950035095,0.2830188572406769,0.2788259983062744,0.28930819034576416,0.2683438062667846,0.2914046049118042,0.28721174597740173,0.3123689591884613,0.3207547068595886,0.33542975783348083,0.3396226465702057,0.3270440399646759,0.31027254462242126,0.3186582922935486,0.29559749364852905,0.2914046049118042,0.2830188572406769,0.28721174597740173,0.2830188572406769,0.2914046049118042,0.2935010492801666,0.2935010492801666,0.2851153016090393,0.2851153016090393,0.4150943458080292,0.7190775871276855,1.0,0.7274633049964904,0.3731656074523926,0.30188679695129395,0.28721174597740173,0.2997903525829315,0.28092244267463684,0.28721174597740173,0.2725366950035095,0.2851153016090393,0.2788259983062744,0.28930819034576416,0.2830188572406769,0.0,0.0,0.0,0.0,0.0,0.0,0.0,0.0,0.0,0.0,0.0,0.0,0.0,0.0,0.0,0.0,0.0,0.0,0.0,0.0,0.0,0.0,0.0,0.0,0.0,0.0,0.0,0.0,0.0,0.0,0.0,0.0,0.0,0.0,0.0,0.0,0.0,0.0,0.0,0.0,0.0,0.0,0.0,0.0,0.0,0.0,0.0,0.0,0.0,0.0,0.0,0.0,0.0,0.0,0.0,0.0,0.0,0.0,0.0,0.0,0.0,0.0,0.0,0.0,0.0,0.0,0.0,0.0,0.0,0.0,0.0,0.0,0.0,0.0,0.0,0.0,0.0,0.0,0.0,0.0,0.0,0.0,2.0
0.845195710659027,1.0,0.6245551705360413,0.33096083998680115,0.2153024971485138,0.21708184480667111,0.1832740157842636,0.17259787023067474,0.16014234721660614,0.16903914511203763,0.16192170977592468,0.16903914511203763,0.16725978255271912,0.16548041999340057,0.16192170977592468,0.1743772178888321,0.17259787023067474,0.18149466812610623,0.17615658044815063,0.17793594300746915,0.17793594300746915,0.1957295387983322,0.19395017623901367,0.2117437720298767,0.2081850469112396,0.2277580052614212,0.23487544059753415,0.2508896887302398,0.2526690363883972,0.2651245594024658,0.2473309636116028,0.24377223849296567,0.2313167303800583,0.22953736782073977,0.20996440947055817,0.2117437720298767,0.18861210346221924,0.19750890135765076,0.19039146602153775,0.19395017623901367,0.1832740157842636,0.1957295387983322,0.18149466812610623,0.20640569925308228,0.19395017623901367,0.20640569925308228,0.21352313458919525,0.2384341657161713,0.27046263217926025,0.35587188601493835,0.45729538798332214,0.5854092240333557,0.6886121034622192,0.7846975326538086,0.8807829022407532,0.8594306111335753,0.761565864086151,0.708185076713562,0.6370106935501099,0.6138790249824524,0.5587188601493835,0.43238434195518494,0.22597864270210263,0.12455516308546066,0.0693950206041336,0.06049821898341179,0.03380782902240753,0.028469750657677647,0.005338078364729881,0.0,0.0,0.0,0.0,0.0,0.0,0.0,0.0,0.0,0.0,0.0,0.0,0.0,0.0,0.0,0.0,0.0,0.0,0.0,0.0,0.0,0.0,0.0,0.0,0.0,0.0,0.0,0.0,0.0,0.0,0.0,0.0,0.0,0.0,0.0,0.0,0.0,0.0,0.0,0.0,0.0,0.0,0.0,0.0,0.0,0.0,0.0,0.0,0.0,0.0,0.0,0.0,0.0,0.0,0.0,0.0,0.0,0.0,0.0,0.0,0.0,0.0,0.0,0.0,0.0,0.0,0.0,0.0,0.0,0.0,0.0,0.0,0.0,0.0,0.0,0.0,0.0,0.0,0.0,0.0,0.0,0.0,0.0,0.0,0.0,0.0,0.0,0.0,0.0,0.0,0.0,0.0,0.0,0.0,0.0,0.0,0.0,0.0,0.0,0.0,0.0,0.0,0.0,0.0,0.0,0.0,0.0,0.0,0.0,0.0,0.0,0.0,0.0,0.0,0.0,0.0,0.0,0.0,3.0
1.0,0.9289940595626832,0.7307692170143129,0.42307692766189575,0.36094674468040466,0.3076923191547394,0.3047337234020233,0.28994083404541016,0.2869822382926941,0.2781065106391907,0.2781065106391907,0.26923078298568726,0.28106507658958435,0.26035502552986145,0.27218934893608093,0.26035502552986145,0.2751479148864746,0.26035502552986145,0.26923078298568726,0.2633136212825775,0.2840236723423004,0.2751479148864746,0.2869822382926941,0.28106507658958435,0.2869822382926941,0.2840236723423004,0.30177515745162964,0.30177515745162964,0.3136094808578491,0.3195266127586365,0.34023669362068176,0.35207101702690125,0.37278106808662415,0.36094674468040466,0.3698224723339081,0.3550295829772949,0.3757396340370178,0.37278106808662415,0.37278106808662415,0.36094674468040466,0.3698224723339081,0.35207101702690125,0.36390531063079834,0.4023668766021729,0.4615384638309478,0.0917159765958786,0.0,0.002958579920232296,0.008875739760696888,0.050295859575271606,0.1538461595773697,0.17159762978553772,0.19822485744953156,0.25147929787635803,0.3550295829772949,0.37278106808662415,0.4023668766021729,0.3964497148990631,0.417159765958786,0.4201183319091797,0.43786981701850886,0.45857986807823187,0.4822485148906708,0.4970414340496063,0.5147929191589355,0.5502958297729492,0.5798816680908203,0.0,0.0,0.0,0.0,0.0,0.0,0.0,0.0,0.0,0.0,0.0,0.0,0.0,0.0,0.0,0.0,0.0,0.0,0.0,0.0,0.0,0.0,0.0,0.0,0.0,0.0,0.0,0.0,0.0,0.0,0.0,0.0,0.0,0.0,0.0,0.0,0.0,0.0,0.0,0.0,0.0,0.0,0.0,0.0,0.0,0.0,0.0,0.0,0.0,0.0,0.0,0.0,0.0,0.0,0.0,0.0,0.0,0.0,0.0,0.0,0.0,0.0,0.0,0.0,0.0,0.0,0.0,0.0,0.0,0.0,0.0,0.0,0.0,0.0,0.0,0.0,0.0,0.0,0.0,0.0,0.0,0.0,0.0,0.0,0.0,0.0,0.0,0.0,0.0,0.0,0.0,0.0,0.0,0.0,0.0,0.0,0.0,0.0,0.0,0.0,0.0,0.0,0.0,0.0,0.0,0.0,0.0,0.0,0.0,0.0,0.0,0.0,0.0,0.0,0.0,0.0,0.0,0.0,0.0,0.0,0.0
0.08088235557079315,0.1305147111415863,0.20220588147640228,0.21507352590560913,0.3345588147640228,0.4779411852359772,0.5036764740943909,0.5091911554336548,0.5202205777168274,0.5441176295280457,0.6029411554336548,0.5808823704719543,0.6158088445663452,0.6084558963775635,0.6341911554336548,0.6654411554336548,0.6930146813392639,0.7224264740943909,0.7628676295280457,0.8106617927551268,0.8492646813392638,0.8952205777168274,0.9761029481887816,0.96875,1.0,0.9797794222831726,0.9485294222831726,0.9522058963775635,0.9283088445663453,0.6948529481887817,0.46139705181121826,0.18382352590560913,0.07536764442920685,0.056985292583703995,0.023897059261798855,0.0,0.05147058889269829,0.1452205926179886,0.34007352590560913,0.481617659330368,0.5533088445663452,0.623161792755127,0.65625,0.6966911554336548,0.7022058963775635,0.0,0.0,0.0,0.0,0.0,0.0,0.0,0.0,0.0,0.0,0.0,0.0,0.0,0.0,0.0,0.0,0.0,0.0,0.0,0.0,0.0,0.0,0.0,0.0,0.0,0.0,0.0,0.0,0.0,0.0,0.0,0.0,0.0,0.0,0.0,0.0,0.0,0.0,0.0,0.0,0.0,0.0,0.0,0.0,0.0,0.0,0.0,0.0,0.0,0.0,0.0,0.0,0.0,0.0,0.0,0.0,0.0,0.0,0.0,0.0,0.0,0.0,0.0,0.0,0.0,0.0,0.0,0.0,0.0,0.0,0.0,0.0,0.0,0.0,0.0,0.0,0.0,0.0,0.0,0.0,0.0,0.0,0.0,0.0,0.0,0.0,0.0,0.0,0.0,0.0,0.0,0.0,0.0,0.0,0.0,0.0,0.0,0.0,0.0,0.0,0.0,0.0,0.0,0.0,0.0,0.0,0.0,0.0,0.0,0.0,0.0,0.0,0.0,0.0,0.0,0.0,0.0,0.0,0.0,0.0,0.0,0.0,0.0,0.0,0.0,0.0,0.0,0.0,0.0,0.0,0.0,0.0,0.0,0.0,0.0,0.0,0.0,0.0,0.0,0.0,0.0,0.0,2.0
1.0,0.9353741407394408,0.761904776096344,0.5187074542045593,0.43537414073944086,0.47448980808258057,0.45408162474632263,0.43367347121238703,0.4047619104385376,0.39115646481513977,0.3707483112812042,0.36054420471191406,0.3452380895614624,0.3333333432674408,0.3214285671710968,0.3163265287876129,0.2925170063972473,0.2908163368701935,0.2789115607738495,0.27210885286331177,0.2551020383834839,0.2551020383834839,0.24149659276008603,0.2380952388048172,0.22789116203784943,0.21768707036972043,0.19557823240756989,0.19217686355113983,0.17176871001720428,0.15646257996559143,0.13265305757522583,0.11224489659070969,0.07653061300516129,0.057823128998279565,0.028911564499139782,0.017006803303956985,0.0,0.008503401651978493,0.018707482144236565,0.04591836780309677,0.06802721321582794,0.10374149680137634,0.130952388048172,0.16496598720550537,0.18877550959587097,0.21938775479793549,0.23979592323303223,0.261904776096344,0.26530611515045166,0.28231292963027954,0.28231292963027954,0.2925170063972473,0.2908163368701935,0.30102041363716125,0.2976190447807312,0.30612245202064514,0.2976190447807312,0.307823121547699,0.30442178249359125,0.30612245202064514,0.30102041363716125,0.31122449040412903,0.0,0.0,0.0,0.0,0.0,0.0,0.0,0.0,0.0,0.0,0.0,0.0,0.0,0.0,0.0,0.0,0.0,0.0,0.0,0.0,0.0,0.0,0.0,0.0,0.0,0.0,0.0,0.0,0.0,0.0,0.0,0.0,0.0,0.0,0.0,0.0,0.0,0.0,0.0,0.0,0.0,0.0,0.0,0.0,0.0,0.0,0.0,0.0,0.0,0.0,0.0,0.0,0.0,0.0,0.0,0.0,0.0,0.0,0.0,0.0,0.0,0.0,0.0,0.0,0.0,0.0,0.0,0.0,0.0,0.0,0.0,0.0,0.0,0.0,0.0,0.0,0.0,0.0,0.0,0.0,0.0,0.0,0.0,0.0,0.0,0.0,0.0,0.0,0.0,0.0,0.0,0.0,0.0,0.0,0.0,0.0,0.0,0.0,0.0,0.0,0.0,0.0,0.0,0.0,0.0,0.0,0.0,0.0,0.0,0.0,0.0,0.0,0.0,0.0,0.0,0.0,0.0,0.0,0.0,0.0,0.0,0.0,0.0,0.0,0.0,4.0
0.9756944179534912,0.9322916865348818,0.6180555820465088,0.390625,0.359375,0.3090277910232544,0.2586805522441864,0.2326388955116272,0.1822916716337204,0.15625,0.1163194477558136,0.1145833358168602,0.09548611193895341,0.1076388880610466,0.0868055522441864,0.09722222387790681,0.0850694477558136,0.078125,0.0711805522441864,0.0746527761220932,0.0659722238779068,0.0590277761220932,0.0434027761220932,0.0486111119389534,0.0295138880610466,0.027777777984738346,0.013888888992369173,0.013888888992369173,0.0,0.0,0.0,0.020833333954215046,0.026041666045784954,0.05729166790843009,0.0625,0.1059027761220932,0.125,0.140625,0.15625,0.171875,0.1770833283662796,0.1788194477558136,0.1753472238779068,0.1805555522441864,0.1701388955116272,0.1822916716337204,0.1701388955116272,0.1736111044883728,0.1770833283662796,0.1788194477558136,0.1684027761220932,0.1736111044883728,0.1614583283662796,0.1753472238779068,0.1666666716337204,0.1788194477558136,0.1684027761220932,0.1753472238779068,0.171875,0.1822916716337204,0.1788194477558136,0.1788194477558136,0.1701388955116272,0.1840277761220932,0.171875,0.1857638955116272,0.1684027761220932,0.1822916716337204,0.1770833283662796,0.1892361044883728,0.1805555522441864,0.1961805522441864,0.1979166716337204,0.1996527761220932,0.1996527761220932,0.2065972238779068,0.1961805522441864,0.2065972238779068,0.1944444477558136,0.1996527761220932,0.1805555522441864,0.1788194477558136,0.171875,0.1822916716337204,0.1736111044883728,0.1840277761220932,0.1770833283662796,0.1875,0.1788194477558136,0.2378472238779068,0.3663194477558136,0.4739583432674408,0.6649305820465088,0.9131944179534912,1.0,0.8350694179534912,0.4600694477558136,0.3784722089767456,0.3420138955116272,0.3003472089767456,0.2465277761220932,0.21875,0.1822916716337204,0.1545138955116272,0.1267361044883728,0.1215277761220932,0.1076388880610466,0.1180555522441864,0.1041666641831398,0.1076388880610466,0.09722222387790681,0.09548611193895341,0.09201388806104659,0.0,0.0,0.0,0.0,0.0,0.0,0.0,0.0,0.0,0.0,0.0,0.0,0.0,0.0,0.0,0.0,0.0,0.0,0.0,0.0,0.0,0.0,0.0,0.0,0.0,0.0,0.0,0.0,0.0,0.0,0.0,0.0,0.0,0.0,0.0,0.0,0.0,0.0,0.0,0.0,0.0,0.0,0.0,0.0,0.0,0.0,0.0,0.0,0.0,0.0,0.0,0.0,0.0,0.0,0.0,0.0,0.0,0.0,0.0,0.0,0.0,0.0,0.0,0.0,0.0,0.0,0.0,0.0,0.0,0.0,0.0,0.0,0.0,0.0,0.0
0.8907849788665771,1.0,0.6365187764167786,0.2508532404899597,0.17235495150089264,0.15187713503837583,0.127986341714859,0.11604095250368118,0.11604095250368118,0.10409556329250336,0.11262798309326172,0.09897611290216445,0.09215017408132552,0.10238907486200333,0.09726962447166443,0.09385665506124496,0.08873720467090607,0.08703071624040604,0.08361774682998657,0.08020477741956711,0.08191126585006714,0.07849829643964767,0.08873720467090607,0.10238907486200333,0.10409556329250336,0.12627986073493955,0.13993173837661743,0.15870307385921478,0.15699659287929535,0.17406143248081207,0.16723549365997314,0.16723549365997314,0.1706484705209732,0.15699659287929535,0.14675767719745636,0.1535836160182953,0.1535836160182953,0.15529009699821472,0.14505119621753693,0.15529009699821472,0.15017065405845642,0.15529009699821472,0.1655290126800537,0.1484641581773758,0.15529009699821472,0.16211603581905365,0.15187713503837583,0.16723549365997314,0.16211603581905365,0.18771331012248993,0.25255972146987915,0.319112628698349,0.3873720169067382,0.4761092066764831,0.5767918229103088,0.711604118347168,0.8037542700767517,0.7320818901062012,0.6313993334770203,0.5870307087898254,0.564846396446228,0.585324227809906,0.5409556031227112,0.4112628102302551,0.19965870678424835,0.11945392191410063,0.08361774682998657,0.07679180800914764,0.05802047625184059,0.04948805645108223,0.046075087040662766,0.0426621176302433,0.02559726871550083,0.02389078587293625,0.005119454115629196,0.0,0.0,0.0,0.0,0.0,0.0,0.0,0.0,0.0,0.0,0.0,0.0,0.0,0.0,0.0,0.0,0.0,0.0,0.0,0.0,0.0,0.0,0.0,0.0,0.0,0.0,0.0,0.0,0.0,0.0,0.0,0.0,0.0,0.0,0.0,0.0,0.0,0.0,0.0,0.0,0.0,0.0,0.0,0.0,0.0,0.0,0.0,0.0,0.0,0.0,0.0,0.0,0.0,0.0,0.0,0.0,0.0,0.0,0.0,0.0,0.0,0.0,0.0,0.0,0.0,0.0,0.0,0.0,0.0,0.0,0.0,0.0,0.0,0.0,0.0,0.0,0.0,0.0,0.0,0.0,0.0,0.0,0.0,0.0,0.0,0.0,0.0,0.0,0.0,0.0,0.0,0.0,0.0,0.0,0.0,0.0,0.0,0.0,0.0,0.0,0.0,0.0,0.0,0.0,0.0,0.0,0.0,0.0,0.0,0.0,0.0,0.0,3.0
1.0,0.8999999761581421,0.6823529601097107,0.4352941215038299,0.16862745583057404,0.021568628028035164,0.03529411926865578,0.07450980693101883,0.08431372791528702,0.07254902273416518,0.07058823853731155,0.07647059112787247,0.07647059112787247,0.06666667014360428,0.062745101749897,0.06862745434045792,0.062745101749897,0.05686274543404579,0.05686274543404579,0.05882352963089943,0.05882352963089943,0.04313725605607033,0.04117647185921669,0.045098040252923965,0.04117647185921669,0.02941176481544971,0.02549019642174244,0.0235294122248888,0.01764705963432789,0.0058823530562222,0.0019607844296842813,0.0019607844296842813,0.0058823530562222,0.0,0.009803921915590765,0.02941176481544971,0.037254903465509415,0.04901960864663124,0.06862745434045792,0.0941176488995552,0.10000000149011612,0.11568627506494522,0.12941177189350128,0.15098039805889127,0.15490196645259857,0.1411764770746231,0.1411764770746231,0.14313726127147675,0.12745098769664764,0.10784313827753068,0.09803921729326248,0.0882352963089943,0.08039215952157974,0.07647059112787247,0.06470588594675064,0.07254902273416518,0.07450980693101883,0.07647059112787247,0.07843137532472612,0.08235294371843338,0.09019608050584792,0.0882352963089943,0.0941176488995552,0.10196078568696976,0.1039215698838234,0.1039215698838234,0.09803921729326248,0.1098039224743843,0.10588235408067705,0.1098039224743843,0.1098039224743843,0.11568627506494522,0.11372549086809158,0.1098039224743843,0.11176470667123795,0.11960784345865248,0.11764705926179884,0.11372549086809158,0.11568627506494522,0.11960784345865248,0.125490203499794,0.11764705926179884,0.12156862765550612,0.13137255609035492,0.12352941185235976,0.12352941185235976,0.12156862765550612,0.13333334028720856,0.12745098769664764,0.11960784345865248,0.12156862765550612,0.13137255609035492,0.125490203499794,0.12352941185235976,0.12941177189350128,0.12745098769664764,0.13333334028720856,0.125490203499794,0.12745098769664764,0.13725490868091583,0.12941177189350128,0.12941177189350128,0.12941177189350128,0.1352941244840622,0.1352941244840622,0.12941177189350128,0.125490203499794,0.1352941244840622,0.13137255609035492,0.12941177189350128,0.12941177189350128,0.13921569287776947,0.1352941244840622,0.12941177189350128,0.12941177189350128,0.1411764770746231,0.1352941244840622,0.13137255609035492,0.1352941244840622,0.14509804546833038,0.14509804546833038,0.14313726127147675,0.14313726127147675,0.1529411822557449,0.16274510324001312,0.16274510324001312,0.1529411822557449,0.1568627506494522,0.1568627506494522,0.1568627506494522,0.17450980842113495,0.16862745583057404,0.1529411822557449,0.13725490868091583,0.13333334028720856,0.13725490868091583,0.1352941244840622,0.125490203499794,0.11960784345865248,0.1666666716337204,0.2647058963775635,0.2921568751335144,0.1568627506494522,0.10784313827753068,0.35098040103912354,0.6078431606292725,0.8176470398902893,0.9078431129455566,0.8392156958580017,0.613725483417511,0.31960785388946533,0.08039215952157974,0.037254903465509415,0.06666667014360428,0.08627451211214066,0.09607843309640884,0.08627451211214066,0.07647059112787247,0.08431372791528702,0.09019608050584792,0.08431372791528702,0.08039215952157974,0.07254902273416518,0.08627451211214066,0.08039215952157974,0.06666667014360428,0.07450980693101883,0.07843137532472612,0.07058823853731155,0.062745101749897,0.06470588594675064,0.06666667014360428,0.05686274543404579,0.05294117704033851,0.04117647185921669,0.0,0.0,0.0,0.0,0.0,0.0,0.0,0.0,0.0,0.0,0.0,0.0,0.0
0.9437751173973085,0.8795180916786194,0.8393574357032776,0.7349397540092468,0.5421686768531799,0.5020080208778381,0.45783132314682007,0.42971888184547424,0.4377509951591491,0.4377509951591491,0.32931727170944214,0.2610441744327545,0.22489960491657257,0.2008032202720642,0.1405622512102127,0.07228915393352509,0.03614457696676254,0.03614457696676254,0.00803212821483612,0.0200803205370903,0.00401606410741806,0.00803212821483612,0.0,0.0200803205370903,0.01204819232225418,0.0200803205370903,0.02811245061457157,0.0401606410741806,0.03614457696676254,0.05220883712172508,0.06827308982610703,0.1004016101360321,0.1004016101360321,0.11646586656570435,0.1204819306731224,0.13654617965221405,0.1526104360818863,0.1807228922843933,0.1807228922843933,0.20883534848690033,0.19277107715606687,0.2008032202720642,0.19678714871406555,0.2329317331314087,0.2208835333585739,0.24497991800308228,0.2208835333585739,0.24899598956108093,0.22891566157341003,0.23694778978824615,0.2208835333585739,0.2409638613462448,0.2329317331314087,0.23694778978824615,0.2329317331314087,0.2329317331314087,0.22489960491657257,0.2409638613462448,0.22891566157341003,0.2530120611190796,0.22891566157341003,0.25702810287475586,0.24497991800308228,0.24899598956108093,0.24899598956108093,0.2610441744327545,0.2530120611190796,0.2650602459907532,0.25702810287475586,0.2650602459907532,0.24497991800308228,0.2650602459907532,0.24899598956108093,0.26907631754875183,0.2610441744327545,0.27710843086242676,0.26907631754875183,0.2730923593044281,0.2650602459907532,0.2730923593044281,0.2610441744327545,0.2650602459907532,0.26907631754875183,0.28915661573410034,0.26907631754875183,0.28915661573410034,0.2610441744327545,0.27710843086242676,0.27710843086242676,0.27710843086242676,0.26907631754875183,0.293172687292099,0.2650602459907532,0.28915661573410034,0.26907631754875183,0.29718875885009766,0.28915661573410034,0.3132530152797699,0.3212851285934448,0.3895582258701325,0.4377509951591491,0.5381526350975037,0.6184738874435425,0.738955795764923,0.827309250831604,0.8875501751899718,0.9076305031776429,1.0,0.9477911591529846,0.91566264629364,0.843373477458954,0.7148594260215759,0.5502008199691772,0.5140562057495117,0.4618473947048187,0.44979920983314514,0.4337349534034729,0.37751004099845886,0.3012048304080963,0.29718875885009766,0.22891566157341003,0.21686747670173645,0.13654617965221405,0.07630521804094315,0.04417670518159866,0.06425702571868896,0.04819276928901672,0.05622490122914314,0.03212851285934448,0.0,0.0,0.0,0.0,0.0,0.0,0.0,0.0,0.0,0.0,0.0,0.0,0.0,0.0,0.0,0.0,0.0,0.0,0.0,0.0,0.0,0.0,0.0,0.0,0.0,0.0,0.0,0.0,0.0,0.0,0.0,0.0,0.0,0.0,0.0,0.0,0.0,0.0,0.0,0.0,0.0,0.0,0.0,0.0,0.0,0.0,0.0,0.0,0.0,0.0,0.0,0.0,0.0,0.0,0.0,0.0,0.0,0.0,2.0
0.7496296167373657,0.6459259390830994,0.5274074077606201,0.40740740299224854,0.2844444513320923,0.16592592000961304,0.09925925731658936,0.04592592641711235,0.03703703731298447,0.0533333346247673,0.08888889104127883,0.17777778208255768,0.290370374917984,0.3333333432674408,0.37185186147689814,0.4296296238899231,0.4918518662452698,0.5392592549324036,0.5881481766700745,0.6044444441795349,0.6251851916313171,0.6325926184654236,0.6474074125289917,0.6518518328666687,0.6651852130889893,0.6740740537643433,0.6844444274902344,0.6933333277702332,0.7037037014961243,0.7111111283302307,0.7348148226737976,0.7496296167373657,0.7688888907432557,0.7866666913032532,0.8074073791503905,0.8237037062644958,0.8518518805503845,0.8696296215057373,0.8844444155693054,0.9007407426834105,0.9066666960716248,0.8992592692375182,0.8903703689575195,0.868148148059845,0.8518518805503845,0.8177777528762817,0.7807407379150391,0.7407407164573668,0.7051851749420166,0.6651852130889893,0.6311110854148865,0.6044444441795349,0.5896296501159668,0.5703703761100769,0.5600000023841858,0.5585185289382935,0.54666668176651,0.5496296286582947,0.54666668176651,0.5392592549324036,0.5407407283782959,0.5407407283782959,0.5422222018241882,0.5348148345947266,0.5303703546524048,0.5259259343147278,0.5229629874229431,0.5185185074806213,0.5185185074806213,0.5111111402511597,0.5155555605888367,0.4962962865829468,0.5081481337547302,0.5037037134170532,0.5037037134170532,0.5007407665252686,0.4962962865829468,0.49037036299705505,0.4977777898311615,0.4948148131370544,0.4948148131370544,0.4962962865829468,0.4962962865829468,0.4918518662452698,0.4888888895511627,0.4844444394111634,0.4888888895511627,0.4844444394111634,0.4888888895511627,0.4874074161052704,0.4948148131370544,0.49333333969116205,0.49925926327705383,0.4948148131370544,0.5007407665252686,0.5111111402511597,0.6118518710136414,1.0,0.8266666531562805,0.7540740966796875,0.6651852130889893,0.5496296286582947,0.43111109733581543,0.3007407486438751,0.16888888180255887,0.07851851731538773,0.02518518455326557,0.0,0.008888889104127884,0.05037036910653114,0.14222222566604614,0.2666666805744171,0.31555554270744324,0.3585185110569,0.42222222685813904,0.4785185158252716,0.5392592549324036,0.5688889026641846,0.5925925970077515,0.0,0.0,0.0,0.0,0.0,0.0,0.0,0.0,0.0,0.0,0.0,0.0,0.0,0.0,0.0,0.0,0.0,0.0,0.0,0.0,0.0,0.0,0.0,0.0,0.0,0.0,0.0,0.0,0.0,0.0,0.0,0.0,0.0,0.0,0.0,0.0,0.0,0.0,0.0,0.0,0.0,0.0,0.0,0.0,0.0,0.0,0.0,0.0,0.0,0.0,0.0,0.0,0.0,0.0,0.0,0.0,0.0,0.0,0.0,0.0,0.0,0.0,0.0,0.0,0.0,0.0,0.0,0.0,4.0
1.0,0.7860082387924193,0.1111111119389534,0.0,0.16049382090568542,0.1810699552297592,0.17283950746059415,0.2510288059711456,0.2633744776248932,0.23868313431739807,0.23868313431739807,0.30452674627304077,0.3786008358001709,0.3703703582286834,0.3333333432674408,0.3333333432674408,0.34156379103660583,0.3621399104595184,0.3539094626903534,0.3539094626903534,0.3703703582286834,0.3621399104595184,0.3621399104595184,0.374485582113266,0.3991769552230835,0.40740740299224854,0.4156378507614136,0.4197530746459961,0.4567901194095611,0.48148149251937866,0.49794238805770874,0.5390946269035339,0.5679012537002563,0.5720164775848389,0.5720164775848389,0.5843621492385864,0.5802469253540039,0.5555555820465088,0.5144032835960388,0.4691357910633087,0.4444444477558136,0.3991769552230835,0.3703703582286834,0.3580246865749359,0.3703703582286834,0.3621399104595184,0.31687241792678833,0.2921810746192932,0.32098764181137085,0.30041152238845825,0.30452674627304077,0.3292181193828583,0.3292181193828583,0.31687241792678833,0.29629629850387573,0.2880658507347107,0.3086419701576233,0.30452674627304077,0.30452674627304077,0.30452674627304077,0.3086419701576233,0.3127571940422058,0.30041152238845825,0.32098764181137085,0.3497942388057709,0.34567901492118835,0.32098764181137085,0.32098764181137085,0.31687241792678833,0.30041152238845825,0.3086419701576233,0.3539094626903534,0.3703703582286834,0.34156379103660583,0.32098764181137085,0.3127571940422058,0.34567901492118835,0.34156379103660583,0.34567901492118835,0.34156379103660583,0.3497942388057709,0.3539094626903534,0.3292181193828583,0.3333333432674408,0.3580246865749359,0.3786008358001709,0.39094650745391846,0.440329223871231,0.6337448358535767,0.8930041193962097,0.8724279999732971,0.3127571940422058,0.02880658395588398,0.10288065671920776,0.1646090596914291,0.1563785970211029,0.1975308656692505,0.25514402985572815,0.23456789553165436,0.22633744776248932,0.26748970150947565,0.2921810746192932,0.34156379103660583,0.3374485671520233,0.3580246865749359,0.3621399104595184,0.374485582113266,0.0,0.0,0.0,0.0,0.0,0.0,0.0,0.0,0.0,0.0,0.0,0.0,0.0,0.0,0.0,0.0,0.0,0.0,0.0,0.0,0.0,0.0,0.0,0.0,0.0,0.0,0.0,0.0,0.0,0.0,0.0,0.0,0.0,0.0,0.0,0.0,0.0,0.0,0.0,0.0,0.0,0.0,0.0,0.0,0.0,0.0,0.0,0.0,0.0,0.0,0.0,0.0,0.0,0.0,0.0,0.0,0.0,0.0,0.0,0.0,0.0,0.0,0.0,0.0,0.0,0.0,0.0,0.0,0.0,0.0,0.0,0.0,0.0,0.0,0.0,0.0,0.0,0.0,0.0,0.0,1.0
0.7276785969734192,0.6741071343421936,0.5446428656578064,0.28125,0.2455357164144516,0.2232142835855484,0.1116071417927742,0.03125,0.0714285746216774,0.0714285746216774,0.0714285746216774,0.026785714551806446,0.058035712689161294,0.0669642835855484,0.07589285820722579,0.0892857164144516,0.1160714253783226,0.1116071417927742,0.125,0.1294642835855484,0.1339285671710968,0.1294642835855484,0.1428571492433548,0.1428571492433548,0.1607142835855484,0.1785714328289032,0.2098214328289032,0.2366071492433548,0.2410714328289032,0.2410714328289032,0.2767857015132904,0.2857142984867096,0.3214285671710968,0.3125,0.3035714328289032,0.2857142984867096,0.2678571343421936,0.2633928656578064,0.2544642984867096,0.2410714328289032,0.2321428507566452,0.2008928507566452,0.2276785671710968,0.2276785671710968,0.2098214328289032,0.2098214328289032,0.2098214328289032,0.2053571492433548,0.2053571492433548,0.2053571492433548,0.1919642835855484,0.1919642835855484,0.2053571492433548,0.2232142835855484,0.1964285671710968,0.1964285671710968,0.2142857164144516,0.1964285671710968,0.1919642835855484,0.1919642835855484,0.1607142835855484,0.1875,0.1875,0.1830357164144516,0.1830357164144516,0.1830357164144516,0.1785714328289032,0.1473214328289032,0.15625,0.1741071492433548,0.2142857164144516,0.1919642835855484,0.1785714328289032,0.1785714328289032,0.1741071492433548,0.1964285671710968,0.1696428507566452,0.1875,0.1875,0.1830357164144516,0.2142857164144516,0.2053571492433548,0.1919642835855484,0.1964285671710968,0.2053571492433548,0.2098214328289032,0.21875,0.2633928656578064,0.6830357313156128,1.0,0.5714285969734192,0.6294642686843872,0.6517857313156128,0.6741071343421936,0.6339285969734192,0.6383928656578064,0.5982142686843872,0.4285714328289032,0.2678571343421936,0.03125,0.0,0.0669642835855484,0.0357142873108387,0.01785714365541935,0.07589285820722579,0.0714285746216774,0.07589285820722579,0.0491071417927742,0.0357142873108387,0.0625,0.0,0.0,0.0,0.0,0.0,0.0,0.0,0.0,0.0,0.0,0.0,0.0,0.0,0.0,0.0,0.0,0.0,0.0,0.0,0.0,0.0,0.0,0.0,0.0,0.0,0.0,0.0,0.0,0.0,0.0,0.0,0.0,0.0,0.0,0.0,0.0,0.0,0.0,0.0,0.0,0.0,0.0,0.0,0.0,0.0,0.0,0.0,0.0,0.0,0.0,0.0,0.0,0.0,0.0,0.0,0.0,0.0,0.0,0.0,0.0,0.0,0.0,0.0,0.0,0.0,0.0,0.0,0.0,0.0,0.0,0.0,0.0,0.0,0.0,0.0,0.0,0.0,4.0
1.0,0.9583333134651184,0.6517857313156128,0.190476194024086,0.122023805975914,0.2113095223903656,0.2321428507566452,0.255952388048172,0.2351190447807312,0.2321428507566452,0.2380952388048172,0.2648809552192688,0.261904776096344,0.2648809552192688,0.2678571343421936,0.261904776096344,0.2738095223903656,0.2678571343421936,0.2797619104385376,0.2708333432674408,0.2797619104385376,0.2857142984867096,0.300595223903656,0.3125,0.318452388048172,0.324404776096344,0.3392857015132904,0.3392857015132904,0.3571428656578064,0.3541666567325592,0.3601190447807312,0.369047611951828,0.386904776096344,0.3779761791229248,0.3839285671710968,0.3779761791229248,0.3779761791229248,0.369047611951828,0.3511904776096344,0.3392857015132904,0.3303571343421936,0.318452388048172,0.306547611951828,0.3125,0.3125,0.2916666567325592,0.3154761791229248,0.2886904776096344,0.2916666567325592,0.2827380895614624,0.261904776096344,0.2648809552192688,0.2529761791229248,0.2380952388048172,0.2589285671710968,0.2380952388048172,0.255952388048172,0.2410714328289032,0.261904776096344,0.255952388048172,0.2410714328289032,0.2410714328289032,0.247023805975914,0.2232142835855484,0.2261904776096344,0.2380952388048172,0.255952388048172,0.2410714328289032,0.2321428507566452,0.2023809552192688,0.2202380895614624,0.2291666716337204,0.2232142835855484,0.2202380895614624,0.2291666716337204,0.1964285671710968,0.2261904776096344,0.3779761791229248,0.5208333134651184,0.6934523582458496,0.8303571343421936,0.6220238208770752,0.1607142835855484,0.0,0.0505952388048172,0.09226190298795699,0.1369047611951828,0.1339285671710968,0.1339285671710968,0.1428571492433548,0.1636904776096344,0.1607142835855484,0.1607142835855484,0.1607142835855484,0.1666666716337204,0.1755952388048172,0.0,0.0,0.0,0.0,0.0,0.0,0.0,0.0,0.0,0.0,0.0,0.0,0.0,0.0,0.0,0.0,0.0,0.0,0.0,0.0,0.0,0.0,0.0,0.0,0.0,0.0,0.0,0.0,0.0,0.0,0.0,0.0,0.0,0.0,0.0,0.0,0.0,0.0,0.0,0.0,0.0,0.0,0.0,0.0,0.0,0.0,0.0,0.0,0.0,0.0,0.0,0.0,0.0,0.0,0.0,0.0,0.0,0.0,0.0,0.0,0.0,0.0,0.0,0.0,0.0,0.0,0.0,0.0,0.0,0.0,0.0,0.0,0.0,0.0,0.0,0.0,0.0,0.0,0.0,0.0,0.0,0.0,0.0,0.0,0.0,0.0,0.0,0.0,0.0,0.0,0.0,0.0
0.8908450603485107,1.0,0.8380281925201416,0.4419014155864715,0.20246478915214536,0.13556337356567383,0.10915493220090866,0.09683098644018173,0.07746478915214539,0.07746478915214539,0.06338027864694595,0.05985915660858154,0.05809859186410904,0.05809859186410904,0.05105633661150932,0.047535210847854614,0.0404929593205452,0.0404929593205452,0.03169013932347298,0.028169013559818268,0.0211267601698637,0.028169013559818268,0.026408450677990913,0.03697182983160019,0.04929577559232712,0.06338027864694595,0.07218309491872787,0.09859155118465424,0.11443661898374556,0.13908450305461884,0.15316902101039886,0.1654929518699646,0.1637323945760727,0.1690140813589096,0.16021126508712769,0.15669013559818268,0.15316902101039886,0.14964789152145383,0.14788731932640076,0.15316902101039886,0.15316902101039886,0.15316902101039886,0.15492957830429077,0.15669013559818268,0.15316902101039886,0.16021126508712769,0.15492957830429077,0.1672535240650177,0.17605634033679962,0.2095070481300354,0.25704225897789,0.3397887349128723,0.41549295186996454,0.5088028311729431,0.591549277305603,0.6760563254356384,0.7570422291755676,0.73591548204422,0.6654929518699646,0.6320422291755676,0.5968309640884399,0.6197183132171631,0.5862675905227661,0.45070421695709234,0.22887323796749112,0.13204225897789,0.08802817016839981,0.06866197288036346,0.04929577559232712,0.047535210847854614,0.03697182983160019,0.026408450677990913,0.017605634406208992,0.008802817203104496,0.0,0.0,0.0,0.0,0.0,0.0,0.0,0.0,0.0,0.0,0.0,0.0,0.0,0.0,0.0,0.0,0.0,0.0,0.0,0.0,0.0,0.0,0.0,0.0,0.0,0.0,0.0,0.0,0.0,0.0,0.0,0.0,0.0,0.0,0.0,0.0,0.0,0.0,0.0,0.0,0.0,0.0,0.0,0.0,0.0,0.0,0.0,0.0,0.0,0.0,0.0,0.0,0.0,0.0,0.0,0.0,0.0,0.0,0.0,0.0,0.0,0.0,0.0,0.0,0.0,0.0,0.0,0.0,0.0,0.0,0.0,0.0,0.0,0.0,0.0,0.0,0.0,0.0,0.0,0.0,0.0,0.0,0.0,0.0,0.0,0.0,0.0,0.0,0.0,0.0,0.0,0.0,0.0,0.0,0.0,0.0,0.0,0.0,0.0,0.0,0.0,0.0,0.0,0.0,0.0,0.0,0.0,0.0,0.0,0.0,0.0,0.0,0.0,3.0
1.0,0.9408060312271118,0.7040302157402039,0.381612092256546,0.1549118459224701,0.124685138463974,0.128463476896286,0.10201511532068253,0.08564231544733047,0.07934508472681044,0.06549118459224701,0.04785894230008125,0.04785894230008125,0.0314861461520195,0.013853903859853745,0.008816121146082878,0.006297229323536158,0.0,0.0037783375009894367,0.0037783375009894367,0.017632242292165756,0.03778337687253952,0.04785894230008125,0.07430730760097504,0.10453400760889052,0.13602015376091003,0.17884130775928497,0.20780856907367704,0.244332492351532,0.2821158766746521,0.30478590726852417,0.32619646191596985,0.3425692617893219,0.3450881540775299,0.3463476002216339,0.3400503695011139,0.33375313878059387,0.32493701577186584,0.29974812269210815,0.2858942151069641,0.2795969843864441,0.256926953792572,0.248110830783844,0.245591938495636,0.249370276927948,0.25314861536026,0.248110830783844,0.26196473836898804,0.29596978425979614,0.3123425841331482,0.32619646191596985,0.3387909233570099,0.33123424649238586,0.3060453534126282,0.25944584608078,0.23173803091049192,0.244332492351532,0.248110830783844,0.23173803091049192,0.23929470777511597,0.251889169216156,0.248110830783844,0.248110830783844,0.24307304620742795,0.23551636934280396,0.30100756883621216,0.515113353729248,0.8224181532859801,0.8727959990501403,0.5755667686462402,0.25314861536026,0.07430730760097504,0.10201511532068253,0.192695215344429,0.19395466148853305,0.18261964619159696,0.191435769200325,0.18136020004749295,0.17002518475055695,0.17632241547107697,0.0,0.0,0.0,0.0,0.0,0.0,0.0,0.0,0.0,0.0,0.0,0.0,0.0,0.0,0.0,0.0,0.0,0.0,0.0,0.0,0.0,0.0,0.0,0.0,0.0,0.0,0.0,0.0,0.0,0.0,0.0,0.0,0.0,0.0,0.0,0.0,0.0,0.0,0.0,0.0,0.0,0.0,0.0,0.0,0.0,0.0,0.0,0.0,0.0,0.0,0.0,0.0,0.0,0.0,0.0,0.0,0.0,0.0,0.0,0.0,0.0,0.0,0.0,0.0,0.0,0.0,0.0,0.0,0.0,0.0,0.0,0.0,0.0,0.0,0.0,0.0,0.0,0.0,0.0,0.0,0.0,0.0,0.0,0.0,0.0,0.0,0.0,0.0,0.0,0.0,0.0,0.0,0.0,0.0,0.0,0.0,0.0,0.0,0.0,0.0,0.0,0.0,0.0,0.0,0.0,0.0,0.0,3.0
0.9953917264938356,0.8341013789176941,0.13824884593486783,0.0,0.10599078238010406,0.15668202936649323,0.13364055752754211,0.21198156476020813,0.23502303659915924,0.22580644488334656,0.2534562349319458,0.2857142984867096,0.3502304255962372,0.36866360902786255,0.3640553057193756,0.35944700241088867,0.377880185842514,0.3732718825340271,0.377880185842514,0.377880185842514,0.377880185842514,0.40092167258262634,0.382488489151001,0.382488489151001,0.39631336927413935,0.4285714328289032,0.4516128897666931,0.4423963129520416,0.4792626798152923,0.5299538969993591,0.5483871102333069,0.5437787771224976,0.5806451439857483,0.5944700241088867,0.6082949042320251,0.617511510848999,0.6129032373428345,0.6221198439598083,0.5714285969734192,0.5345622301101685,0.52073734998703,0.48387095332145685,0.4423963129520416,0.4055299460887909,0.39170506596565247,0.40092167258262634,0.3870967626571655,0.35944700241088867,0.36866360902786255,0.39631336927413935,0.3870967626571655,0.3732718825340271,0.382488489151001,0.3870967626571655,0.382488489151001,0.36866360902786255,0.35483869910240173,0.3640553057193756,0.3502304255962372,0.3502304255962372,0.3732718825340271,0.39170506596565247,0.377880185842514,0.3732718825340271,0.3870967626571655,0.382488489151001,0.377880185842514,0.3640553057193756,0.36866360902786255,0.36866360902786255,0.36866360902786255,0.3870967626571655,0.3640553057193756,0.35483869910240173,0.3640553057193756,0.35944700241088867,0.3732718825340271,0.382488489151001,0.377880185842514,0.377880185842514,0.4055299460887909,0.41013824939727783,0.39631336927413935,0.377880185842514,0.3732718825340271,0.3870967626571655,0.4285714328289032,0.5161290168762207,0.7603686451911926,1.0,0.7419354915618896,0.15668202936649323,0.0875576063990593,0.1751152127981186,0.16129031777381897,0.15668202936649323,0.2488479316234589,0.25806450843811035,0.21198156476020813,0.23963133990764615,0.31797236204147333,0.382488489151001,0.3732718825340271,0.35483869910240173,0.3640553057193756,0.3732718825340271,0.382488489151001,0.377880185842514,0.39170506596565247,0.41935482621192927,0.41013824939727783,0.41013824939727783,0.41013824939727783,0.41935482621192927,0.4147465527057648,0.4055299460887909,0.4516128897666931,0.48847925662994385,0.5115207433700562,0.5253456234931946,0.5668202638626099,0.6036866307258606,0.6082949042320251,0.6082949042320251,0.617511510848999,0.6221198439598083,0.5898617506027222,0.5345622301101685,0.5253456234931946,0.48847925662994385,0.4423963129520416,0.4055299460887909,0.3870967626571655,0.39631336927413935,0.3640553057193756,0.34562212228775024,0.0,0.0,0.0,0.0,0.0,0.0,0.0,0.0,0.0,0.0,0.0,0.0,0.0,0.0,0.0,0.0,0.0,0.0,0.0,0.0,0.0,0.0,0.0,0.0,0.0,0.0,0.0,0.0,0.0,0.0,0.0,0.0,0.0,0.0,0.0,0.0,0.0,0.0,0.0,0.0,0.0,0.0,0.0,0.0,0.0,0.0,0.0,0.0,0.0,0.0,0.0,1.0
1.0,0.8929765820503235,0.5050167441368103,0.010033444501459599,0.040133778005838394,0.15719063580036163,0.3010033369064331,0.32107022404670715,0.35451504588127136,0.3478260934352875,0.3812709152698517,0.4080267548561096,0.44147157669067383,0.44147157669067383,0.45819398760795593,0.45819398760795593,0.498327761888504,0.5351170301437378,0.5986621975898743,0.6086956262588501,0.6220735907554626,0.6287625432014465,0.6588628888130188,0.6688963174819946,0.7157190442085266,0.6354514956474304,0.6688963174819946,0.6187291145324707,0.6287625432014465,0.5384615659713745,0.47826087474823,0.4314381182193756,0.4314381182193756,0.39464882016181946,0.41806021332740784,0.3612040281295776,0.4147157073020935,0.37458193302154547,0.4046822786331177,0.3612040281295776,0.4080267548561096,0.40133780241012573,0.40133780241012573,0.42474916577339167,0.44481605291366577,0.44147157669067383,0.44147157669067383,0.3846153914928436,0.44816052913665766,0.4080267548561096,0.37123745679855347,0.3511705696582794,0.3846153914928436,0.37458193302154547,0.39464882016181946,0.3812709152698517,0.40133780241012573,0.37458193302154547,0.3411371111869812,0.3645485043525696,0.37123745679855347,0.37123745679855347,0.3812709152698517,0.40133780241012573,0.4046822786331177,0.5183946490287781,0.7926421165466309,0.9665551781654357,0.7859531641006471,0.113712377846241,0.0,0.19732441008090973,0.3578595221042633,0.37458193302154547,0.44816052913665766,0.3578595221042633,0.3812709152698517,0.4080267548561096,0.44816052913665766,0.474916398525238,0.0,0.0,0.0,0.0,0.0,0.0,0.0,0.0,0.0,0.0,0.0,0.0,0.0,0.0,0.0,0.0,0.0,0.0,0.0,0.0,0.0,0.0,0.0,0.0,0.0,0.0,0.0,0.0,0.0,0.0,0.0,0.0,0.0,0.0,0.0,0.0,0.0,0.0,0.0,0.0,0.0,0.0,0.0,0.0,0.0,0.0,0.0,0.0,0.0,0.0,0.0,0.0,0.0,0.0,0.0,0.0,0.0,0.0,0.0,0.0,0.0,0.0,0.0,0.0,0.0,0.0,0.0,0.0,0.0,0.0,0.0,0.0,0.0,0.0,0.0,0.0,0.0,0.0,0.0,0.0,0.0,0.0,0.0,0.0,0.0,0.0,0.0,0.0,0.0,0.0,0.0,0.0,0.0,0.0,0.0,0.0,0.0,0.0,0.0,0.0,0.0,0.0,0.0,0.0,0.0,0.0,0.0,0.0
1.0,0.9971264600753784,0.6867815852165222,0.2787356376647949,0.0,0.0517241396009922,0.020114943385124207,0.09482758492231368,0.07758620381355287,0.1551724076271057,0.16091954708099365,0.15804597735404968,0.1551724076271057,0.17528735101222992,0.14942528307437897,0.1551724076271057,0.13793103396892548,0.1522988528013229,0.13793103396892548,0.14367815852165222,0.13793103396892548,0.13793103396892548,0.123563215136528,0.1350574642419815,0.12068965286016464,0.14367815852165222,0.1465517282485962,0.16091954708099365,0.17241379618644714,0.20402298867702484,0.22126436233520508,0.24712643027305603,0.2586206793785095,0.2816092073917389,0.270114928483963,0.3017241358757019,0.2816092073917389,0.2844827473163605,0.2902298867702484,0.2931034564971924,0.28735631704330444,0.3017241358757019,0.272988498210907,0.2931034564971924,0.272988498210907,0.2902298867702484,0.270114928483963,0.2931034564971924,0.28735631704330444,0.29597702622413635,0.270114928483963,0.29597702622413635,0.2787356376647949,0.3045977056026459,0.28735631704330444,0.30747127532958984,0.29885056614875793,0.29885056614875793,0.2931034564971924,0.2931034564971924,0.2787356376647949,0.2844827473163605,0.26724138855934143,0.2902298867702484,0.2787356376647949,0.2902298867702484,0.272988498210907,0.2844827473163605,0.26436781883239746,0.27586206793785095,0.270114928483963,0.2844827473163605,0.2931034564971924,0.3045977056026459,0.29885056614875793,0.30747127532958984,0.29597702622413635,0.31609195470809937,0.2844827473163605,0.29597702622413635,0.27586206793785095,0.3247126340866089,0.4252873659133911,0.48563218116760254,0.5603448152542114,0.6149425506591797,0.5373563170433044,0.3735632300376892,0.25287356972694397,0.25,0.22413793206214905,0.2298850566148758,0.21264368295669556,0.22701148688793185,0.22126436233520508,0.21551723778247833,0.20114941895008087,0.2068965584039688,0.18103447556495664,0.20114941895008087,0.19827586412429807,0.2097701132297516,0.19827586412429807,0.22701148688793185,0.20402298867702484,0.0,0.0,0.0,0.0,0.0,0.0,0.0,0.0,0.0,0.0,0.0,0.0,0.0,0.0,0.0,0.0,0.0,0.0,0.0,0.0,0.0,0.0,0.0,0.0,0.0,0.0,0.0,0.0,0.0,0.0,0.0,0.0,0.0,0.0,0.0,0.0,0.0,0.0,0.0,0.0,0.0,0.0,0.0,0.0,0.0,0.0,0.0,0.0,0.0,0.0,0.0,0.0,0.0,0.0,0.0,0.0,0.0,0.0,0.0,0.0,0.0,0.0,0.0,0.0,0.0,0.0,0.0,0.0,0.0,0.0,0.0,0.0,0.0,0.0,0.0,0.0,0.0,0.0,0.0,0.0,0.0,0.0,2.0
1.0,0.6216216087341309,0.47567567229270935,0.3513513505458832,0.2540540397167206,0.22162161767482755,0.17297297716140747,0.0972972959280014,0.12432432174682616,0.11891891807317732,0.11891891807317732,0.09189189225435257,0.07567567378282547,0.05945945903658867,0.037837836891412735,0.027027027681469917,0.02162162214517593,0.010810811072587965,0.02162162214517593,0.0054054055362939835,0.0,0.0,0.01621621660888195,0.01621621660888195,0.0486486479640007,0.0810810774564743,0.10270269960165024,0.09189189225435257,0.09189189225435257,0.07567567378282547,0.05945945903658867,0.0486486479640007,0.02162162214517593,0.01621621660888195,0.0486486479640007,0.05945945903658867,0.10270269960165024,0.12432432174682616,0.1459459513425827,0.1297297328710556,0.11891891807317732,0.12432432174682616,0.1297297328710556,0.11891891807317732,0.11891891807317732,0.10270269960165024,0.10270269960165024,0.10810811072587966,0.1297297328710556,0.10810811072587966,0.14054054021835327,0.14054054021835327,0.18918919563293457,0.2540540397167206,0.2756756842136383,0.26486486196517944,0.0,0.0,0.0,0.0,0.0,0.0,0.0,0.0,0.0,0.0,0.0,0.0,0.0,0.0,0.0,0.0,0.0,0.0,0.0,0.0,0.0,0.0,0.0,0.0,0.0,0.0,0.0,0.0,0.0,0.0,0.0,0.0,0.0,0.0,0.0,0.0,0.0,0.0,0.0,0.0,0.0,0.0,0.0,0.0,0.0,0.0,0.0,0.0,0.0,0.0,0.0,0.0,0.0,0.0,0.0,0.0,0.0,0.0,0.0,0.0,0.0,0.0,0.0,0.0,0.0,0.0,0.0,0.0,0.0,0.0,0.0,0.0,0.0,0.0,0.0,0.0,0.0,0.0,0.0,0.0,0.0,0.0,0.0,0.0,0.0,0.0,0.0,0.0,0.0,0.0,0.0,0.0,0.0,0.0,0.0,0.0,0.0,0.0,0.0,0.0,0.0,0.0,0.0,0.0,0.0,0.0,0.0,0.0,0.0,0.0,0.0,0.0,0.0,0.0,0.0,0.0,0.0,0.0,0.0,0.0,0.0,0.0,0.0,0.0,0.0,0.0,0.0,0.0,0.0,0.0,0.0,1.0
0.9170731902122496,1.0,0.6219512224197388,0.1170731708407402,0.0,0.06585365533828735,0.08048780262470245,0.06829268485307693,0.07073170691728592,0.06829268485307693,0.053658537566661835,0.0585365854203701,0.06585365533828735,0.06341463327407837,0.04878048598766327,0.053658537566661835,0.05121951177716255,0.046341463923454285,0.031707316637039185,0.036585364490747445,0.039024390280246735,0.031707316637039185,0.0219512190669775,0.012195121496915816,0.02439024299383163,0.0219512190669775,0.012195121496915816,0.014634146355092524,0.04146341606974602,0.05121951177716255,0.060975611209869385,0.08048780262470245,0.1170731708407402,0.14146341383457184,0.14146341383457184,0.14146341383457184,0.1609756052494049,0.16585366427898407,0.1463414579629898,0.15365853905677795,0.1560975611209869,0.14878049492835999,0.14146341383457184,0.14146341383457184,0.1463414579629898,0.14146341383457184,0.1317073106765747,0.1268292665481567,0.13414634764194489,0.1317073106765747,0.1146341487765312,0.10975609719753264,0.12195122241973876,0.1268292665481567,0.11219511926174164,0.10975609719753264,0.1170731708407402,0.1268292665481567,0.12195122241973876,0.12439024448394775,0.14390243589878082,0.15365853905677795,0.15365853905677795,0.1634146273136139,0.178048774600029,0.1926829218864441,0.19512194395065308,0.19512194395065308,0.1902438998222351,0.17560975253582,0.1634146273136139,0.13658536970615387,0.1317073106765747,0.12195122241973876,0.11951219290494917,0.12439024448394775,0.13414634764194489,0.14146341383457184,0.14878049492835999,0.17317073047161102,0.2634146213531494,0.3975609838962555,0.6414633989334106,0.8390243649482726,0.9853658676147461,0.8390243649482726,0.31707316637039185,0.014634146355092524,0.036585364490747445,0.07317072898149489,0.07073170691728592,0.06585365533828735,0.07317072898149489,0.06829268485307693,0.053658537566661835,0.05121951177716255,0.0585365854203701,0.060975611209869385,0.039024390280246735,0.039024390280246735,0.04146341606974602,0.0,0.0,0.0,0.0,0.0,0.0,0.0,0.0,0.0,0.0,0.0,0.0,0.0,0.0,0.0,0.0,0.0,0.0,0.0,0.0,0.0,0.0,0.0,0.0,0.0,0.0,0.0,0.0,0.0,0.0,0.0,0.0,0.0,0.0,0.0,0.0,0.0,0.0,0.0,0.0,0.0,0.0,0.0,0.0,0.0,0.0,0.0,0.0,0.0,0.0,0.0,0.0,0.0,0.0,0.0,0.0,0.0,0.0,0.0,0.0,0.0,0.0,0.0,0.0,0.0,0.0,0.0,0.0,0.0,0.0,0.0,0.0,0.0,0.0,0.0,0.0,0.0,0.0,0.0,0.0,0.0,0.0,0.0,0.0,0.0,0.0,0.0
0.9274193644523621,0.5524193644523621,0.5725806355476379,0.5645161271095276,0.5806451439857483,0.5322580933570862,0.5524193644523621,0.5040322542190552,0.41129031777381897,0.2620967626571655,0.0927419364452362,0.0,0.06451612710952759,0.016129031777381897,0.05645161122083664,0.09677419066429138,0.14516128599643707,0.10483870655298232,0.10483870655298232,0.1088709682226181,0.1532258093357086,0.1532258093357086,0.14516128599643707,0.125,0.1532258093357086,0.1572580635547638,0.1653225868940353,0.1572580635547638,0.16935484111309052,0.14516128599643707,0.16129031777381897,0.1733870953321457,0.1854838728904724,0.1895161271095276,0.23790322244167328,0.22580644488334656,0.2661290466785431,0.25,0.30241936445236206,0.32258063554763794,0.3266128897666931,0.2983871102333069,0.35483869910240173,0.31854838132858276,0.3266128897666931,0.29032257199287415,0.32258063554763794,0.29032257199287415,0.28629031777381897,0.2620967626571655,0.27016130089759827,0.2782258093357086,0.2983871102333069,0.25806450843811035,0.25806450843811035,0.24193547666072843,0.2661290466785431,0.23387096822261808,0.22580644488334656,0.2177419364452362,0.22177419066429135,0.19758065044879913,0.23387096822261808,0.2016129046678543,0.20967741310596463,0.18145161867141724,0.2016129046678543,0.1733870953321457,0.1854838728904724,0.17741934955120087,0.17741934955120087,0.16129031777381897,0.19354838132858276,0.1532258093357086,0.16935484111309052,0.1532258093357086,0.17741934955120087,0.1572580635547638,0.1653225868940353,0.1572580635547638,0.16129031777381897,0.14112903177738187,0.1653225868940353,0.1572580635547638,0.16935484111309052,0.14516128599643707,0.16129031777381897,0.14516128599643707,0.16129031777381897,0.1532258093357086,0.16129031777381897,0.1532258093357086,0.1653225868940353,0.1532258093357086,0.17741934955120087,0.16935484111309052,0.19354838132858276,0.19758065044879913,0.3104838728904724,0.8588709831237794,1.0,0.5322580933570862,0.5725806355476379,0.5846773982048035,0.6129032373428345,0.5685483813285828,0.5887096524238586,0.5564516186714172,0.4959677457809448,0.35080644488334656,0.2016129046678543,0.012096773833036423,0.07661290466785431,0.04435483738780022,0.02822580561041832,0.02822580561041832,0.08467742055654526,0.08467742055654526,0.08467742055654526,0.06451612710952759,0.07258064299821852,0.0,0.0,0.0,0.0,0.0,0.0,0.0,0.0,0.0,0.0,0.0,0.0,0.0,0.0,0.0,0.0,0.0,0.0,0.0,0.0,0.0,0.0,0.0,0.0,0.0,0.0,0.0,0.0,0.0,0.0,0.0,0.0,0.0,0.0,0.0,0.0,0.0,0.0,0.0,0.0,0.0,0.0,0.0,0.0,0.0,0.0,0.0,0.0,0.0,0.0,0.0,0.0,0.0,0.0,0.0,0.0,0.0,0.0,0.0,0.0,0.0,0.0,0.0,0.0,0.0,0.0,4.0
0.9525862336158752,1.0,0.43103447556495667,0.06896551698446274,0.12931033968925476,0.22413793206214905,0.1939655244350433,0.1853448301553726,0.2844827473163605,0.2931034564971924,0.25431033968925476,0.26724138855934143,0.3146551847457886,0.3836206793785095,0.4094827473163605,0.3879310488700866,0.4094827473163605,0.4137931168079376,0.4181034564971924,0.39655172824859614,0.39655172824859614,0.4094827473163605,0.4137931168079376,0.4094827473163605,0.40086206793785095,0.4137931168079376,0.4137931168079376,0.42241379618644714,0.44396552443504333,0.48275861144065857,0.48275861144065857,0.4870689511299134,0.5258620977401733,0.556034505367279,0.5732758641242981,0.5732758641242981,0.5948275923728943,0.6163793206214905,0.5991379022598267,0.5775862336158752,0.5603448152542114,0.5603448152542114,0.5215517282485962,0.45258620381355286,0.43103447556495667,0.40517240762710566,0.3836206793785095,0.35775861144065857,0.35775861144065857,0.3663793206214905,0.3448275923728943,0.3232758641242981,0.34913793206214905,0.3620689511299134,0.3405172526836395,0.32758620381355286,0.31896552443504333,0.3362068831920624,0.3103448152542114,0.3146551847457886,0.3448275923728943,0.3405172526836395,0.3405172526836395,0.3362068831920624,0.375,0.3879310488700866,0.3620689511299134,0.3534482717514038,0.3534482717514038,0.34913793206214905,0.3362068831920624,0.35775861144065857,0.3534482717514038,0.34913793206214905,0.3534482717514038,0.3362068831920624,0.34913793206214905,0.34913793206214905,0.34913793206214905,0.35775861144065857,0.3534482717514038,0.35775861144065857,0.3534482717514038,0.34913793206214905,0.3620689511299134,0.40086206793785095,0.4482758641242981,0.5948275923728943,0.8793103694915771,0.9698275923728943,0.3793103396892547,0.0,0.07758620381355287,0.1681034415960312,0.12931033968925476,0.1767241358757019,0.22413793206214905,0.1939655244350433,0.18965516984462735,0.21551723778247833,0.2887931168079376,0.3318965435028076,0.32758620381355286,0.2887931168079376,0.3103448152542114,0.31896552443504333,0.0,0.0,0.0,0.0,0.0,0.0,0.0,0.0,0.0,0.0,0.0,0.0,0.0,0.0,0.0,0.0,0.0,0.0,0.0,0.0,0.0,0.0,0.0,0.0,0.0,0.0,0.0,0.0,0.0,0.0,0.0,0.0,0.0,0.0,0.0,0.0,0.0,0.0,0.0,0.0,0.0,0.0,0.0,0.0,0.0,0.0,0.0,0.0,0.0,0.0,0.0,0.0,0.0,0.0,0.0,0.0,0.0,0.0,0.0,0.0,0.0,0.0,0.0,0.0,0.0,0.0,0.0,0.0,0.0,0.0,0.0,0.0,0.0,0.0,0.0,0.0,0.0,0.0,0.0,0.0,0.0,1.0
1.0,0.859824776649475,0.37922403216362,0.08260325342416763,0.2828535735607147,0.26783478260040283,0.2115143984556198,0.22653315961360931,0.23028786480426788,0.2227784693241119,0.21652065217494965,0.23153942823410031,0.23654568195343015,0.22653315961360931,0.23404255509376523,0.24530662596225736,0.25281602144241333,0.2515644431114197,0.2503128945827484,0.2653316557407379,0.27659574151039124,0.2866082489490509,0.29662078619003296,0.3141426742076874,0.32165205478668213,0.32165205478668213,0.32665830850601196,0.32916146516799927,0.32916146516799927,0.31539425253868103,0.3041301667690277,0.2928660809993744,0.2803504467010498,0.26157698035240173,0.24155193567276,0.2327909916639328,0.23028786480426788,0.2240300327539444,0.21276596188545227,0.22027534246444705,0.22027534246444705,0.2152690887451172,0.21276596188545227,0.21777221560478208,0.21652065217494965,0.2152690887451172,0.20775969326496124,0.21276596188545227,0.21276596188545227,0.2065081298351288,0.20150187611579895,0.20150187611579895,0.19899874925613403,0.1939924955368042,0.1877346634864807,0.19524405896663663,0.19774718582630155,0.18898622691631317,0.1877346634864807,0.1939924955368042,0.19148936867713928,0.1839799731969833,0.1814768463373184,0.19148936867713928,0.19524405896663663,0.20525656640529633,0.2065081298351288,0.2065081298351288,0.21401752531528473,0.22528159618377683,0.22778473794460297,0.22528159618377683,0.22027534246444705,0.2115143984556198,0.19649562239646912,0.18898622691631317,0.1789737194776535,0.16645807027816772,0.16896119713783264,0.17772215604782104,0.17146432399749756,0.16770963370800018,0.1702127605676651,0.2152690887451172,0.36670839786529547,0.6408010125160217,0.9224029779434205,0.8898622989654541,0.4242803454399109,0.0,0.1639549434185028,0.23153942823410031,0.1902377903461456,0.17271588742733,0.17521902918815613,0.17521902918815613,0.18272840976715088,0.17772215604782104,0.1764705926179886,0.18648310005664823,0.19524405896663663,0.18898622691631317,0.19274093210697177,0.2065081298351288,0.0,0.0,0.0,0.0,0.0,0.0,0.0,0.0,0.0,0.0,0.0,0.0,0.0,0.0,0.0,0.0,0.0,0.0,0.0,0.0,0.0,0.0,0.0,0.0,0.0,0.0,0.0,0.0,0.0,0.0,0.0,0.0,0.0,0.0,0.0,0.0,0.0,0.0,0.0,0.0,0.0,0.0,0.0,0.0,0.0,0.0,0.0,0.0,0.0,0.0,0.0,0.0,0.0,0.0,0.0,0.0,0.0,0.0,0.0,0.0,0.0,0.0,0.0,0.0,0.0,0.0,0.0,0.0,0.0,0.0,0.0,0.0,0.0,0.0,0.0,0.0,0.0,0.0,0.0,0.0,0.0,0.0,0.0,0.0
0.8958333134651184,0.5416666865348816,0.5520833134651184,0.5625,0.5555555820465088,0.5416666865348816,0.5173611044883728,0.4444444477558136,0.3263888955116272,0.1770833283662796,0.05208333209156991,0.1284722238779068,0.1631944477558136,0.15625,0.1875,0.2395833283662796,0.2048611044883728,0.1909722238779068,0.1979166716337204,0.2152777761220932,0.2118055522441864,0.21875,0.2118055522441864,0.2152777761220932,0.2013888955116272,0.2013888955116272,0.1909722238779068,0.1736111044883728,0.1840277761220932,0.1875,0.1979166716337204,0.2326388955116272,0.2361111044883728,0.2638888955116272,0.2777777910232544,0.2881944477558136,0.3055555522441864,0.3090277910232544,0.2986111044883728,0.3125,0.3298611044883728,0.3368055522441864,0.3298611044883728,0.34375,0.3402777910232544,0.3298611044883728,0.3159722089767456,0.2951388955116272,0.3055555522441864,0.2986111044883728,0.2777777910232544,0.2708333432674408,0.2638888955116272,0.2777777910232544,0.2743055522441864,0.2673611044883728,0.2569444477558136,0.2569444477558136,0.2604166567325592,0.25,0.2395833283662796,0.2395833283662796,0.2430555522441864,0.2430555522441864,0.25,0.2361111044883728,0.2291666716337204,0.2256944477558136,0.2256944477558136,0.2326388955116272,0.2291666716337204,0.2256944477558136,0.2222222238779068,0.2395833283662796,0.2118055522441864,0.2118055522441864,0.2395833283662796,0.2326388955116272,0.2152777761220932,0.2048611044883728,0.2083333283662796,0.2222222238779068,0.2256944477558136,0.2291666716337204,0.2361111044883728,0.21875,0.2291666716337204,0.2256944477558136,0.2430555522441864,0.2291666716337204,0.2291666716337204,0.2222222238779068,0.2118055522441864,0.2430555522441864,0.2326388955116272,0.2395833283662796,0.2673611044883728,0.3125,0.5520833134651184,1.0,0.53125,0.5381944179534912,0.5416666865348816,0.5555555820465088,0.5243055820465088,0.5347222089767456,0.4722222089767456,0.3611111044883728,0.2152777761220932,0.05555555596947669,0.0,0.07638888806104659,0.08333333581686019,0.1111111119389534,0.1805555522441864,0.21875,0.2118055522441864,0.2013888955116272,0.2256944477558136,0.0,0.0,0.0,0.0,0.0,0.0,0.0,0.0,0.0,0.0,0.0,0.0,0.0,0.0,0.0,0.0,0.0,0.0,0.0,0.0,0.0,0.0,0.0,0.0,0.0,0.0,0.0,0.0,0.0,0.0,0.0,0.0,0.0,0.0,0.0,0.0,0.0,0.0,0.0,0.0,0.0,0.0,0.0,0.0,0.0,0.0,0.0,0.0,0.0,0.0,0.0,0.0,0.0,0.0,0.0,0.0,0.0,0.0,0.0,0.0,0.0,0.0,0.0,0.0,0.0,0.0,0.0,0.0,4.0
1.0,0.8111888170242308,0.20629370212554932,0.04545454680919647,0.12237761914730072,0.19930070638656616,0.16083915531635284,0.1818181872367859,0.24475523829460144,0.24125874042510984,0.2307692319154739,0.26923078298568726,0.3181818127632141,0.3636363744735718,0.3601398468017578,0.3216783106327057,0.32867133617401123,0.33916082978248596,0.33916082978248596,0.3426573574542999,0.3601398468017578,0.36713287234306335,0.36713287234306335,0.3496503531932831,0.3636363744735718,0.4020979106426239,0.4020979106426239,0.41258740425109863,0.4265734255313874,0.4615384638309478,0.4895104765892029,0.503496527671814,0.5279720425605774,0.559440553188324,0.5769230723381042,0.5699300765991211,0.5629370808601379,0.5454545617103577,0.503496527671814,0.4580419659614563,0.4020979106426239,0.3916083872318268,0.35664334893226624,0.32517483830451965,0.31468531489372253,0.32517483830451965,0.31468531489372253,0.3041957914829254,0.30069929361343384,0.31468531489372253,0.3076923191547394,0.31118881702423096,0.3181818127632141,0.3041957914829254,0.3076923191547394,0.30069929361343384,0.30069929361343384,0.28671327233314514,0.2902098000049591,0.279720276594162,0.279720276594162,0.3076923191547394,0.3041957914829254,0.30069929361343384,0.3181818127632141,0.32517483830451965,0.3076923191547394,0.28671327233314514,0.30069929361343384,0.3041957914829254,0.28321677446365356,0.2902098000049591,0.32867133617401123,0.32517483830451965,0.31468531489372253,0.3041957914829254,0.28321677446365356,0.3076923191547394,0.32867133617401123,0.3041957914829254,0.31118881702423096,0.32867133617401123,0.32867133617401123,0.31118881702423096,0.3076923191547394,0.3461538553237915,0.4020979106426239,0.5769230723381042,0.867132842540741,0.9300699234008787,0.3881118893623352,0.0,0.03846153989434242,0.1258741319179535,0.13286712765693665,0.12937062978744507,0.2097902148962021,0.21678321063518524,0.1678321659564972,0.18531468510627744,0.22727273404598236,0.30069929361343384,0.32517483830451965,0.31118881702423096,0.3181818127632141,0.3216783106327057,0.3076923191547394,0.3076923191547394,0.3216783106327057,0.3216783106327057,0.32867133617401123,0.3181818127632141,0.3216783106327057,0.3426573574542999,0.3496503531932831,0.3461538553237915,0.3496503531932831,0.3881118893623352,0.4055944085121154,0.41258740425109863,0.4335664212703705,0.48251748085021967,0.46853145956993103,0.48251748085021967,0.5104895234107971,0.5174825191497803,0.5209790468215942,0.48251748085021967,0.4580419659614563,0.4440559446811676,0.41258740425109863,0.370629370212555,0.3426573574542999,0.0,0.0,0.0,0.0,0.0,0.0,0.0,0.0,0.0,0.0,0.0,0.0,0.0,0.0,0.0,0.0,0.0,0.0,0.0,0.0,0.0,0.0,0.0,0.0,0.0,0.0,0.0,0.0,0.0,0.0,0.0,0.0,0.0,0.0,0.0,0.0,0.0,0.0,0.0,0.0,0.0,0.0,0.0,0.0,0.0,0.0,0.0,0.0,0.0,0.0,0.0,0.0,0.0,0.0,1.0
1.0,0.9768785834312438,0.8011560440063477,0.4647398889064789,0.18843930959701535,0.17687861621379852,0.1942196488380432,0.1468208134174347,0.1306358426809311,0.12716762721538544,0.10173410177230834,0.08670520037412643,0.07861271500587463,0.06127167493104935,0.053179189562797546,0.03005780279636383,0.018497109413146973,0.0161849707365036,0.009248554706573486,0.0,0.0080924853682518,0.017341040074825287,0.03352601081132889,0.050867050886154175,0.06358381360769272,0.09364161640405655,0.12716762721538544,0.1468208134174347,0.18381503224372864,0.22196531295776367,0.24624277651309967,0.27052024006843567,0.2994219660758972,0.31445086002349854,0.32023119926452637,0.3156069219112396,0.31329479813575745,0.3109826445579529,0.29826590418815613,0.28786125779151917,0.27167630195617676,0.26358380913734436,0.26358380913734436,0.25549131631851196,0.2543352544307709,0.26358380913734436,0.2658959627151489,0.27052024006843567,0.2843930721282959,0.285549134016037,0.2924855351448059,0.30520230531692505,0.32138729095458984,0.34682080149650574,0.3572254478931427,0.34566473960876465,0.342196524143219,0.3098265826702118,0.2751445174217224,0.2693641483783722,0.2682080864906311,0.27167630195617676,0.2693641483783722,0.2658959627151489,0.27398842573165894,0.2763005793094635,0.26705202460289,0.2508670389652252,0.3167630136013031,0.5537572503089905,0.8416184782981871,0.8543352484703064,0.6323699355125427,0.3664740025997162,0.14797687530517578,0.1375722587108612,0.22427745163440704,0.22543352842330933,0.21156069636344907,0.20693641901016235,0.20000000298023224,0.20578034222126007,0.1942196488380432,0.1942196488380432,0.0,0.0,0.0,0.0,0.0,0.0,0.0,0.0,0.0,0.0,0.0,0.0,0.0,0.0,0.0,0.0,0.0,0.0,0.0,0.0,0.0,0.0,0.0,0.0,0.0,0.0,0.0,0.0,0.0,0.0,0.0,0.0,0.0,0.0,0.0,0.0,0.0,0.0,0.0,0.0,0.0,0.0,0.0,0.0,0.0,0.0,0.0,0.0,0.0,0.0,0.0,0.0,0.0,0.0,0.0,0.0,0.0,0.0,0.0,0.0,0.0,0.0,0.0,0.0,0.0,0.0,0.0,0.0,0.0,0.0,0.0,0.0,0.0,0.0,0.0,0.0,0.0,0.0,0.0,0.0,0.0,0.0,0.0,0.0,0.0,0.0,0.0,0.0,0.0,0.0,0.0,0.0,0.0,0.0,0.0,0.0,0.0,0.0,0.0,0.0,0.0,0.0,0.0,3.0
1.0,0.9343696236610413,0.7754749655723571,0.6476684212684631,0.4611398875713348,0.31606218218803406,0.24697755277156827,0.23834197223186493,0.24352331459522247,0.26770293712615967,0.2987910211086273,0.3195164203643799,0.3454231321811676,0.3557858467102051,0.36269429326057434,0.3609671890735626,0.3575129508972168,0.35405871272087097,0.35233160853385925,0.3454231321811676,0.3436960279941559,0.34196892380714417,0.34024178981781006,0.33851468563079834,0.34196892380714417,0.3454231321811676,0.3609671890735626,0.37132987380027765,0.379965454339981,0.3972366154193878,0.4127806425094605,0.433506041765213,0.4473229646682739,0.46286702156066895,0.473229706287384,0.4905008673667908,0.5008635520935059,0.5129533410072327,0.5146805047988892,0.5198618173599243,0.5181347131729126,0.5181347131729126,0.5146805047988892,0.511226236820221,0.5060449242591858,0.5094991326332092,0.5129533410072327,0.5077720284461975,0.5025906562805176,0.5077720284461975,0.5164076089859009,0.5164076089859009,0.5129533410072327,0.5025906562805176,0.5025906562805176,0.5077720284461975,0.49913644790649414,0.47668394446372986,0.45077720284461975,0.4317789375782013,0.4196891188621521,0.4058721959590912,0.379965454339981,0.37478411197662354,0.3557858467102051,0.3644214272499085,0.4369602799415588,0.4663212299346924,0.5803108811378479,0.6943005323410034,0.6269429922103882,0.4041450917720794,0.17962002754211423,0.09326425194740295,0.07253886014223099,0.015544041059911253,0.0069084628485143185,0.0,0.036269430071115494,0.10189982503652573,0.17098446190357208,0.26770293712615967,0.3644214272499085,0.4162348806858062,0.4559585452079773,0.4715026021003723,0.4801381826400757,0.48877373337745667,0.4853195250034332,0.0,0.0,0.0,0.0,0.0,0.0,0.0,0.0,0.0,0.0,0.0,0.0,0.0,0.0,0.0,0.0,0.0,0.0,0.0,0.0,0.0,0.0,0.0,0.0,0.0,0.0,0.0,0.0,0.0,0.0,0.0,0.0,0.0,0.0,0.0,0.0,0.0,0.0,0.0,0.0,0.0,0.0,0.0,0.0,0.0,0.0,0.0,0.0,0.0,0.0,0.0,0.0,0.0,0.0,0.0,0.0,0.0,0.0,0.0,0.0,0.0,0.0,0.0,0.0,0.0,0.0,0.0,0.0,0.0,0.0,0.0,0.0,0.0,0.0,0.0,0.0,0.0,0.0,0.0,0.0,0.0,0.0,0.0,0.0,0.0,0.0,0.0,0.0,0.0,0.0,0.0,0.0,0.0,0.0,0.0,0.0,0.0,0.0,0.0
1.0,0.8898678421974182,0.22026431560516355,0.035242289304733276,0.1189427301287651,0.15859030187129974,0.1409691572189331,0.17621144652366638,0.24669604003429413,0.2378854602575302,0.20704846084117887,0.2599118947982788,0.3171806037425995,0.3612334728240966,0.3568281829357147,0.3480176329612732,0.3612334728240966,0.35242289304733276,0.3392070531845093,0.3480176329612732,0.3612334728240966,0.3612334728240966,0.3612334728240966,0.38325992226600647,0.3964757621288299,0.37004405260086054,0.37885463237762446,0.4008810520172119,0.4229075014591217,0.4229075014591217,0.4405286312103271,0.47136563062667847,0.49339208006858826,0.5286343693733215,0.5198237895965576,0.5286343693733215,0.541850209236145,0.5550661087036133,0.5506607890129089,0.5594713687896729,0.5462555289268494,0.5198237895965576,0.46696034073829645,0.458149790763855,0.4405286312103271,0.4229075014591217,0.392070472240448,0.37004405260086054,0.36563876271247864,0.3568281829357147,0.3392070531845093,0.3612334728240966,0.37444934248924255,0.36563876271247864,0.3568281829357147,0.35242289304733276,0.35242289304733276,0.3127753436565399,0.29955947399139404,0.303964763879776,0.33039647340774536,0.33039647340774536,0.3259911835193634,0.3612334728240966,0.3612334728240966,0.35242289304733276,0.34361234307289124,0.37004405260086054,0.35242289304733276,0.3348017632961273,0.3480176329612732,0.37444934248924255,0.34361234307289124,0.3259911835193634,0.3348017632961273,0.3480176329612732,0.3480176329612732,0.3348017632961273,0.3259911835193634,0.3392070531845093,0.3392070531845093,0.33039647340774536,0.34361234307289124,0.35242289304733276,0.37004405260086054,0.40969163179397583,0.6431717872619629,0.982378840446472,0.7709251046180725,0.13215859234333038,0.0,0.11453744769096375,0.14977973699569702,0.1189427301287651,0.17621144652366638,0.22026431560516355,0.19823788106441495,0.19823788106441495,0.2290748953819275,0.303964763879776,0.3392070531845093,0.3392070531845093,0.3259911835193634,0.3392070531845093,0.35242289304733276,0.0,0.0,0.0,0.0,0.0,0.0,0.0,0.0,0.0,0.0,0.0,0.0,0.0,0.0,0.0,0.0,0.0,0.0,0.0,0.0,0.0,0.0,0.0,0.0,0.0,0.0,0.0,0.0,0.0,0.0,0.0,0.0,0.0,0.0,0.0,0.0,0.0,0.0,0.0,0.0,0.0,0.0,0.0,0.0,0.0,0.0,0.0,0.0,0.0,0.0,0.0,0.0,0.0,0.0,0.0,0.0,0.0,0.0,0.0,0.0,0.0,0.0,0.0,0.0,0.0,0.0,0.0,0.0,0.0,0.0,0.0,0.0,0.0,0.0,0.0,0.0,0.0,0.0,0.0,0.0,0.0,0.0,1.0
